0,-0.1
1,-0.085
2,-0.01
3,0
4,-0.025
5,-0.035
6,-0.045
7,-0.075
8,-0.125
9,-0.125
10,-0.15
11,-0.1
12,-0.02
13,0.005
14,0.01
15,0
16,-0.06
17,-0.105
18,-0.11
19,-0.1
20,-0.08
21,-0.075
22,-0.035
23,0.01
24,0.02
25,-0.025
26,-0.06
27,-0.175
28,-0.14
29,-0.1
30,-0.1
31,-0.045
32,-0.015
33,-0.005
34,-0.01
35,-0.01
36,-0.085
37,-0.105
38,-0.12
39,-0.15
40,-0.13
41,-0.045
42,-0.01
43,-0.01
44,-0.035
45,-0.08
46,-0.085
47,-0.08
48,-0.12
49,-0.14
50,-0.11
51,-0.04
52,0
53,0
54,-0.01
55,-0.04
56,-0.08
57,-0.12
58,-0.14
59,-0.11
60,-0.11
61,-0.065
62,-0.045
63,-0.055
64,-0.035
65,-0.03
66,-0.095
67,-0.11
68,-0.125
69,-0.13
70,-0.125
71,-0.05
72,-0.015
73,0.005
74,-0.01
75,-0.05
76,-0.1
77,-0.09
78,-0.12
79,-0.12
80,-0.085
81,-0.015
82,0.045
83,0.055
84,0
85,-0.035
86,-0.06
87,-0.075
88,-0.145
89,-0.075
90,-0.05
91,0.015
92,0.035
93,0.025
94,0.015
95,0.015
96,-0.055
97,-0.07
98,-0.035
99,-0.055
100,-0.02
101,0.06
102,0.075
103,0.06
104,-0.01
105,-0.015
106,-0.06
107,-0.08
108,-0.115
109,-0.115
110,-0.065
111,0.015
112,0.015
113,0.025
114,-0.025
115,-0.05
116,-0.095
117,-0.15
118,-0.14
119,-0.12
120,-0.075
121,-0.06
122,-0.065
123,-0.01
124,-0.02
125,-0.065
126,-0.12
127,-0.155
128,-0.17
129,-0.15
130,-0.115
131,-0.05
132,-0.05
133,-0.04
134,-0.04
135,-0.07
136,-0.125
137,-0.14
138,-0.135
139,-0.125
140,-0.11
141,-0.08
142,-0.02
143,-0.01
144,-0.045
145,-0.065
146,-0.135
147,-0.185
148,-0.185
149,-0.18
150,-0.095
151,-0.07
152,-0.055
153,-0.05
154,-0.05
155,-0.095
156,-0.15
157,-0.165
158,-0.165
159,-0.165
160,-0.135
161,-0.155
162,-0.085
163,-0.065
164,-0.03
165,-0.005
166,-0.02
167,0.02
168,0.1
169,0.2
170,0.3
171,0.43
172,0.565
173,0.675
174,0.75
175,0.695
176,0.645
177,0.585
178,0.52
179,0.415
180,0.335
181,0.315
182,0.19
183,0.06
184,-0.125
185,-0.26
186,-0.28
187,-0.25
188,-0.2
189,-0.185
190,-0.145
191,-0.05
192,-0.02
193,-0.03
194,-0.03
195,-0.045
196,-0.09
197,-0.125
198,-0.105
199,-0.12
200,-0.05
201,-0.03
202,-0.02
203,-0.025
204,-0.005
205,-0.08
206,-0.065
207,-0.09
208,-0.07
209,-0.105
210,-0.08
211,-0.025
212,-0.005
213,-0.035
214,-0.035
215,-0.09
216,-0.105
217,-0.145
218,-0.11
219,-0.065
220,-0.005
221,0.03
222,-0.015
223,0.015
224,0.01
225,-0.06
226,-0.075
227,-0.095
228,-0.08
229,-0.075
230,0.045
231,0.06
232,0.055
233,-0.005
234,-0.015
235,-0.035
236,-0.06
237,-0.06
238,-0.05
239,-0.015
240,-0.015
241,0.025
242,0.045
243,0.04
244,0.02
245,-0.015
246,-0.03
247,0.01
248,-0.05
249,-0.095
250,0.01
251,0.08
252,0.095
253,0.08
254,0.06
255,0
256,-0.01
257,-0.015
258,-0.005
259,0.04
260,0.09
261,0.11
262,0.14
263,0.105
264,0.1
265,0.095
266,0.06
267,0.055
268,0.075
269,0.095
270,0.16
271,0.225
272,0.225
273,0.215
274,0.215
275,0.14
276,0.115
277,0.12
278,0.125
279,0.18
280,0.245
281,0.25
282,0.28
283,0.255
284,0.215
285,0.18
286,0.16
287,0.165
288,0.19
289,0.235
290,0.285
291,0.305
292,0.27
293,0.255
294,0.205
295,0.175
296,0.17
297,0.115
298,0.145
299,0.195
300,0.2
301,0.22
302,0.215
303,0.145
304,0.12
305,0.09
306,0.085
307,0.04
308,0.03
309,0.045
310,0.085
311,0.09
312,0.14
313,0.105
314,0.03
315,-0.025
316,-0.055
317,-0.035
318,-0.035
319,-0.005
320,0.03
321,0.035
322,0.02
323,0
324,-0.05
325,-0.08
326,-0.115
327,-0.1
328,-0.115
329,-0.05
330,-0.01
331,-0.01
332,-0.005
333,-0.015
334,-0.055
335,-0.095
336,-0.12
337,-0.115
338,-0.09
339,-0.025
340,-0.005
341,-0.02
342,-0.03
343,-0.025
344,-0.07
345,-0.105
346,-0.125
347,-0.125
348,-0.1
349,0
350,0.02
351,-0.05
352,-0.065
353,-0.01
354,-0.07
355,-0.09
356,-0.125
357,-0.12
358,-0.085
359,-0.03
360,-0.005
361,0.01
362,-0.015
363,-0.025
364,-0.07
365,-0.085
366,-0.105
367,-0.09
368,-0.1
369,-0.04
370,0.02
371,0.03
372,0.015
373,-0.03
374,-0.115
375,-0.115
376,-0.115
377,-0.07
378,-0.065
379,-0.01
380,0.015
381,-0.005
382,0.025
383,-0.03
384,-0.12
385,-0.135
386,-0.11
387,-0.07
388,-0.075
389,-0.01
390,0.005
391,0
392,0.01
393,0
394,-0.055
395,-0.09
396,-0.08
397,-0.08
398,-0.105
399,-0.01
400,-0.025
401,-0.01
402,-0.015
403,-0.015
404,-0.095
405,-0.115
406,-0.11
407,-0.09
408,-0.065
409,-0.015
410,-0.005
411,-0.015
412,-0.02
413,-0.035
414,-0.085
415,-0.12
416,-0.105
417,-0.11
418,-0.095
419,-0.035
420,-0.025
421,-0.01
422,-0.02
423,-0.06
424,-0.1
425,-0.14
426,-0.145
427,-0.08
428,-0.08
429,-0.035
430,-0.015
431,0
432,-0.02
433,-0.075
434,-0.115
435,-0.11
436,-0.12
437,-0.095
438,-0.065
439,-0.005
440,0.005
441,-0.005
442,-0.06
443,-0.08
444,-0.1
445,-0.095
446,-0.135
447,-0.13
448,-0.085
449,-0.025
450,-0.015
451,0
452,-0.03
453,-0.09
454,-0.15
455,-0.135
456,-0.115
457,-0.115
458,-0.1
459,-0.03
460,-0.005
461,-0.035
462,-0.05
463,-0.06
464,-0.075
465,-0.135
466,-0.145
467,-0.11
468,-0.075
469,-0.03
470,-0.02
471,-0.07
472,-0.055
473,-0.09
474,-0.12
475,-0.135
476,-0.115
477,-0.115
478,-0.05
479,-0.115
480,-0.03
481,-0.005
482,-0.035
483,-0.095
484,-0.125
485,-0.135
486,-0.115
487,-0.105
488,-0.065
489,-0.015
490,-0.03
491,-0.06
492,-0.07
493,-0.095
494,-0.095
495,-0.13
496,-0.115
497,-0.075
498,-0.015
499,-0.01
500,-0.005
501,0.005
502,0
503,-0.065
504,-0.11
505,-0.13
506,-0.085
507,-0.075
508,-0.005
509,0.04
510,0.055
511,0.005
512,-0.065
513,-0.055
514,-0.105
515,-0.105
516,-0.065
517,-0.05
518,0.01
519,0.025
520,0.045
521,0.045
522,0.02
523,-0.035
524,-0.05
525,-0.065
526,-0.05
527,-0.06
528,-0.005
529,0.02
530,0.005
531,-0.015
532,-0.01
533,-0.07
534,-0.1
535,-0.185
536,-0.125
537,-0.1
538,-0.04
539,-0.005
540,-0.02
541,-0.03
542,-0.035
543,-0.105
544,-0.12
545,-0.13
546,-0.165
547,-0.165
548,-0.065
549,-0.015
550,-0.005
551,-0.055
552,-0.05
553,-0.135
554,-0.15
555,-0.135
556,-0.14
557,-0.12
558,-0.03
559,-0.03
560,-0.065
561,-0.085
562,-0.065
563,-0.14
564,-0.145
565,-0.155
566,-0.165
567,-0.1
568,-0.065
569,-0.065
570,-0.05
571,-0.045
572,-0.065
573,-0.135
574,-0.2
575,-0.19
576,-0.15
577,-0.155
578,-0.07
579,-0.07
580,-0.07
581,-0.085
582,-0.145
583,-0.15
584,-0.13
585,-0.08
586,0.005
587,0.065
588,0.2
589,0.305
590,0.35
591,0.445
592,0.565
593,0.645
594,0.68
595,0.665
596,0.645
597,0.615
598,0.595
599,0.505
600,0.425
601,0.3
602,0.12
603,-0.06
604,-0.175
605,-0.235
606,-0.245
607,-0.19
608,-0.165
609,-0.1
610,-0.065
611,-0.07
612,-0.09
613,-0.075
614,-0.105
615,-0.115
616,-0.12
617,-0.085
618,-0.06
619,-0.005
620,-0.035
621,-0.04
622,-0.06
623,-0.07
624,-0.08
625,-0.12
626,-0.16
627,-0.085
628,0.005
629,-0.025
630,0.01
631,0
632,-0.05
633,-0.095
634,-0.105
635,-0.105
636,-0.095
637,-0.02
638,0.005
639,0.02
640,0.02
641,0.01
642,-0.045
643,-0.085
644,-0.08
645,-0.09
646,-0.12
647,-0.03
648,-0.005
649,0.025
650,-0.035
651,0
652,-0.035
653,-0.085
654,-0.095
655,-0.075
656,-0.045
657,0.015
658,0.035
659,0.06
660,0.055
661,0.005
662,-0.05
663,-0.055
664,-0.03
665,-0.03
666,-0.03
667,0.07
668,0.065
669,0.08
670,0.065
671,0.07
672,0.015
673,-0.005
674,-0.05
675,-0.05
676,0.01
677,0.095
678,0.075
679,0.105
680,0.085
681,0.105
682,0.03
683,0.015
684,0.025
685,0.03
686,0.07
687,0.145
688,0.16
689,0.175
690,0.145
691,0.155
692,0.13
693,0.085
694,0.075
695,0.115
696,0.165
697,0.235
698,0.24
699,0.265
700,0.24
701,0.21
702,0.185
703,0.16
704,0.155
705,0.2
706,0.215
707,0.26
708,0.29
709,0.29
710,0.295
711,0.265
712,0.175
713,0.175
714,0.165
715,0.175
716,0.18
717,0.235
718,0.255
719,0.245
720,0.215
721,0.185
722,0.1
723,0.09
724,0.06
725,0.06
726,0.075
727,0.13
728,0.13
729,0.115
730,0.08
731,0.055
732,-0.02
733,-0.04
734,-0.035
735,-0.035
736,-0.01
737,0.04
738,0.05
739,0.035
740,0.01
741,-0.005
742,-0.075
743,-0.1
744,-0.1
745,-0.095
746,-0.065
747,-0.01
748,0
749,-0.005
750,-0.015
751,-0.05
752,-0.1
753,-0.12
754,-0.11
755,-0.11
756,-0.08
757,-0.04
758,-0.08
759,-0.045
760,-0.04
761,-0.04
762,-0.075
763,-0.13
764,-0.14
765,-0.11
766,-0.07
767,-0.045
768,-0.025
769,-0.01
770,-0.015
771,-0.055
772,-0.08
773,-0.085
774,-0.14
775,-0.115
776,-0.065
777,-0.015
778,0
779,0.02
780,-0.02
781,-0.13
782,-0.16
783,-0.125
784,-0.115
785,-0.11
786,-0.025
787,0.01
788,0.01
789,0.01
790,0
791,-0.055
792,-0.085
793,-0.105
794,-0.1
795,-0.095
796,-0.04
797,0.02
798,-0.035
799,-0.025
800,-0.005
801,-0.06
802,-0.1
803,-0.11
804,-0.085
805,-0.1
806,-0.045
807,-0.01
808,0.02
809,0.01
810,-0.005
811,-0.06
812,-0.09
813,-0.095
814,-0.085
815,-0.05
816,-0.01
817,-0.115
818,-0.055
819,0.025
820,0.005
821,-0.07
822,-0.125
823,-0.115
824,-0.1
825,-0.11
826,-0.045
827,-0.015
828,0.025
829,0.005
830,-0.03
831,-0.075
832,-0.11
833,-0.125
834,-0.115
835,-0.105
836,-0.06
837,0
838,0
839,-0.005
840,-0.035
841,-0.115
842,-0.13
843,-0.135
844,-0.13
845,-0.12
846,-0.03
847,-0.02
848,-0.02
849,-0.03
850,-0.04
851,-0.12
852,-0.13
853,-0.125
854,-0.13
855,-0.09
856,-0.045
857,-0.025
858,-0.005
859,-0.015
860,-0.06
861,-0.13
862,-0.135
863,-0.125
864,-0.13
865,-0.105
866,-0.025
867,-0.035
868,-0.06
869,-0.045
870,-0.045
871,-0.105
872,-0.12
873,-0.135
874,-0.12
875,-0.125
876,-0.055
877,-0.035
878,-0.02
879,-0.06
880,-0.07
881,-0.1
882,-0.145
883,-0.125
884,-0.12
885,-0.1
886,-0.02
887,-0.035
888,-0.045
889,-0.05
890,-0.1
891,-0.15
892,-0.12
893,-0.125
894,-0.165
895,-0.105
896,-0.045
897,-0.025
898,-0.015
899,-0.01
900,-0.03
901,-0.09
902,-0.115
903,-0.145
904,-0.11
905,-0.075
906,0.005
907,0.03
908,0
909,-0.015
910,-0.04
911,-0.09
912,-0.095
913,-0.11
914,-0.1
915,0.02
916,0.025
917,-0.025
918,-0.005
919,-0.01
920,-0.045
921,-0.085
922,-0.11
923,-0.085
924,-0.06
925,-0.01
926,0.01
927,0.05
928,0.04
929,0.015
930,-0.025
931,-0.04
932,-0.075
933,-0.085
934,-0.095
935,-0.04
936,-0.015
937,-0.005
938,-0.005
939,-0.02
940,-0.08
941,-0.12
942,-0.14
943,-0.14
944,-0.135
945,-0.08
946,-0.035
947,-0.03
948,-0.04
949,-0.045
950,-0.115
951,-0.14
952,-0.145
953,-0.125
954,-0.095
955,-0.095
956,-0.045
957,-0.075
958,-0.08
959,-0.07
960,-0.15
961,-0.155
962,-0.165
963,-0.125
964,-0.125
965,-0.065
966,-0.07
967,-0.04
968,-0.04
969,-0.05
970,-0.13
971,-0.165
972,-0.135
973,-0.115
974,-0.165
975,-0.12
976,-0.06
977,-0.015
978,-0.03
979,-0.06
980,-0.14
981,-0.155
982,-0.19
983,-0.165
984,-0.17
985,-0.1
986,-0.095
987,-0.095
988,-0.07
989,-0.05
990,-0.05
991,-0.065
992,-0.09
993,0.045
994,0.165
995,0.275
996,0.39
997,0.53
998,0.655
999,0.73
1000,0.685
1001,0.665
1002,0.64
1003,0.575
1004,0.47
1005,0.44
1006,0.36
1007,0.24
1008,0.085
1009,-0.045
1010,-0.19
1011,-0.265
1012,-0.275
1013,-0.24
1014,-0.18
1015,-0.095
1016,-0.06
1017,-0.06
1018,-0.01
1019,-0.025
1020,-0.09
1021,-0.105
1022,-0.12
1023,-0.12
1024,-0.09
1025,-0.03
1026,-0.02
1027,0.005
1028,-0.05
1029,-0.095
1030,-0.095
1031,-0.14
1032,-0.115
1033,-0.1
1034,-0.08
1035,-0.005
1036,0.015
1037,0.02
1038,-0.03
1039,-0.04
1040,-0.065
1041,-0.13
1042,-0.13
1043,-0.09
1044,-0.08
1045,-0.005
1046,0.04
1047,0.025
1048,0.015
1049,-0.025
1050,-0.085
1051,-0.08
1052,-0.08
1053,-0.06
1054,-0.035
1055,0.02
1056,0.05
1057,0.04
1058,0.02
1059,-0.01
1060,-0.065
1061,-0.06
1062,-0.06
1063,-0.085
1064,-0.045
1065,0.025
1066,0.06
1067,0.04
1068,0
1069,-0.005
1070,-0.025
1071,-0.05
1072,-0.04
1073,-0.025
1074,0.05
1075,0.075
1076,0.09
1077,0.095
1078,0.065
1079,0.035
1080,0.01
1081,0.005
1082,0.01
1083,0.01
1084,0.055
1085,0.085
1086,0.12
1087,0.15
1088,0.13
1089,0.055
1090,0.01
1091,0.035
1092,0.04
1093,0.065
1094,0.135
1095,0.18
1096,0.21
1097,0.22
1098,0.2
1099,0.125
1100,0.095
1101,0.15
1102,0.165
1103,0.18
1104,0.215
1105,0.225
1106,0.23
1107,0.25
1108,0.28
1109,0.215
1110,0.165
1111,0.175
1112,0.19
1113,0.21
1114,0.265
1115,0.275
1116,0.25
1117,0.245
1118,0.26
1119,0.22
1120,0.185
1121,0.155
1122,0.135
1123,0.155
1124,0.2
1125,0.195
1126,0.205
1127,0.19
1128,0.18
1129,0.1
1130,0.075
1131,0.04
1132,0.025
1133,0.01
1134,0.08
1135,0.115
1136,0.115
1137,0.09
1138,0.035
1139,-0.015
1140,-0.025
1141,-0.055
1142,-0.055
1143,-0.045
1144,0
1145,0.025
1146,0.035
1147,0.02
1148,-0.015
1149,-0.065
1150,-0.07
1151,-0.085
1152,-0.11
1153,-0.085
1154,-0.005
1155,0.02
1156,0.02
1157,-0.03
1158,-0.05
1159,-0.1
1160,-0.11
1161,-0.11
1162,-0.085
1163,-0.085
1164,-0.04
1165,0.01
1166,0.02
1167,-0.035
1168,-0.06
1169,-0.095
1170,-0.11
1171,-0.105
1172,-0.105
1173,-0.1
1174,-0.03
1175,0.01
1176,0.055
1177,0.02
1178,-0.055
1179,-0.17
1180,-0.11
1181,-0.08
1182,-0.07
1183,-0.09
1184,-0.035
1185,0.025
1186,0.03
1187,0.01
1188,0.01
1189,-0.065
1190,-0.115
1191,-0.145
1192,-0.105
1193,-0.03
1194,0.02
1195,0.03
1196,0.05
1197,0.04
1198,0.01
1199,-0.02
1200,-0.13
1201,-0.11
1202,-0.09
1203,-0.045
1204,-0.005
1205,0.01
1206,0.01
1207,0.02
1208,-0.02
1209,-0.065
1210,-0.09
1211,-0.11
1212,-0.135
1213,-0.11
1214,0.015
1215,0.05
1216,0.01
1217,0.015
1218,-0.045
1219,-0.08
1220,-0.09
1221,-0.09
1222,-0.07
1223,-0.03
1224,-0.01
1225,-0.025
1226,0.01
1227,0.01
1228,-0.04
1229,-0.06
1230,-0.075
1231,-0.09
1232,-0.125
1233,-0.06
1234,-0.015
1235,-0.01
1236,-0.015
1237,-0.01
1238,-0.045
1239,-0.09
1240,-0.11
1241,-0.075
1242,-0.085
1243,-0.055
1244,-0.005
1245,0.025
1246,-0.045
1247,-0.03
1248,-0.05
1249,-0.115
1250,-0.135
1251,-0.105
1252,-0.09
1253,-0.035
1254,-0.005
1255,-0.01
1256,-0.04
1257,-0.03
1258,-0.07
1259,-0.14
1260,-0.14
1261,-0.1
1262,-0.105
1263,-0.05
1264,-0.045
1265,0.01
1266,0
1267,-0.025
1268,-0.08
1269,-0.1
1270,-0.105
1271,-0.125
1272,-0.11
1273,-0.05
1274,-0.025
1275,0.01
1276,0.03
1277,0.005
1278,-0.065
1279,-0.075
1280,-0.1
1281,-0.12
1282,-0.095
1283,-0.02
1284,0.01
1285,0.02
1286,0.08
1287,-0.03
1288,-0.055
1289,-0.085
1290,-0.09
1291,-0.115
1292,-0.09
1293,-0.005
1294,0.06
1295,0.075
1296,0.045
1297,0.05
1298,-0.02
1299,-0.06
1300,-0.08
1301,-0.025
1302,-0.025
1303,0.04
1304,0.045
1305,0.06
1306,0.04
1307,0.005
1308,-0.05
1309,-0.08
1310,-0.105
1311,-0.105
1312,-0.075
1313,0.015
1314,0.005
1315,-0.025
1316,-0.05
1317,-0.03
1318,-0.1
1319,-0.145
1320,-0.12
1321,-0.11
1322,-0.105
1323,-0.04
1324,-0.03
1325,-0.005
1326,-0.02
1327,-0.045
1328,-0.11
1329,-0.14
1330,-0.14
1331,-0.11
1332,-0.12
1333,-0.055
1334,-0.03
1335,-0.04
1336,-0.05
1337,-0.045
1338,-0.115
1339,-0.125
1340,-0.1
1341,-0.14
1342,-0.09
1343,-0.025
1344,0.01
1345,0
1346,-0.08
1347,-0.11
1348,-0.18
1349,-0.19
1350,-0.19
1351,-0.13
1352,-0.09
1353,-0.015
1354,0
1355,-0.01
1356,-0.045
1357,-0.1
1358,-0.14
1359,-0.145
1360,-0.165
1361,-0.16
1362,-0.105
1363,-0.09
1364,-0.07
1365,-0.05
1366,-0.015
1367,0.025
1368,0.045
1369,0.045
1370,0.145
1371,0.21
1372,0.305
1373,0.49
1374,0.64
1375,0.69
1376,0.65
1377,0.58
1378,0.455
1379,0.395
1380,0.325
1381,0.3
1382,0.28
1383,0.18
1384,0.04
1385,-0.085
1386,-0.155
1387,-0.22
1388,-0.235
1389,-0.25
1390,-0.22
1391,-0.175
1392,-0.085
1393,-0.04
1394,0.01
1395,-0.025
1396,-0.06
1397,-0.095
1398,-0.095
1399,-0.135
1400,-0.11
1401,-0.085
1402,-0.05
1403,0.005
1404,-0.02
1405,-0.01
1406,-0.01
1407,-0.07
1408,-0.1
1409,-0.08
1410,-0.09
1411,-0.17
1412,-0.065
1413,0.015
1414,-0.01
1415,0.025
1416,0.04
1417,-0.01
1418,-0.115
1419,-0.09
1420,-0.05
1421,-0.04
1422,-0.015
1423,0.005
1424,0.015
1425,0.01
1426,0.03
1427,-0.035
1428,-0.055
1429,-0.095
1430,-0.09
1431,-0.065
1432,0.02
1433,0.035
1434,0.005
1435,0.02
1436,0.06
1437,-0.03
1438,-0.03
1439,-0.045
1440,-0.03
1441,-0.01
1442,0.035
1443,-0.055
1444,0.005
1445,0.055
1446,0.02
1447,-0.005
1448,-0.045
1449,-0.045
1450,0.005
1451,-0.02
1452,0.06
1453,0.08
1454,0.115
1455,0.105
1456,0.095
1457,0.04
1458,0.015
1459,0
1460,0.005
1461,-0.005
1462,0.075
1463,0.09
1464,0.105
1465,0.125
1466,0.125
1467,0.08
1468,0.055
1469,-0.005
1470,0.08
1471,0.125
1472,0.145
1473,0.17
1474,0.17
1475,0.17
1476,0.19
1477,0.18
1478,0.18
1479,0.035
1480,0.085
1481,0.18
1482,0.235
1483,0.25
1484,0.26
1485,0.21
1486,0.225
1487,0.205
1488,0.165
1489,0.175
1490,0.16
1491,0.17
1492,0.23
1493,0.23
1494,0.255
1495,0.245
1496,0.16
1497,0.16
1498,0.12
1499,0.14
1500,0.145
1501,0.12
1502,0.19
1503,0.1
1504,0.13
1505,0.12
1506,0.09
1507,0.015
1508,0.015
1509,0.025
1510,0.035
1511,0.03
1512,0.035
1513,0.105
1514,0.085
1515,0.08
1516,0.01
1517,-0.045
1518,-0.05
1519,-0.065
1520,-0.065
1521,-0.015
1522,0.04
1523,0.055
1524,0
1525,-0.01
1526,-0.085
1527,-0.07
1528,-0.125
1529,-0.09
1530,-0.11
1531,-0.05
1532,-0.03
1533,-0.015
1534,-0.01
1535,0.01
1536,-0.075
1537,-0.15
1538,-0.105
1539,-0.12
1540,-0.135
1541,-0.09
1542,-0.01
1543,0.01
1544,0.01
1545,0
1546,-0.045
1547,-0.09
1548,-0.11
1549,-0.1
1550,-0.105
1551,-0.03
1552,0.015
1553,0.03
1554,-0.005
1555,-0.03
1556,-0.1
1557,-0.105
1558,-0.09
1559,-0.18
1560,-0.125
1561,-0.01
1562,0.015
1563,0.015
1564,0.01
1565,-0.02
1566,-0.07
1567,-0.09
1568,-0.065
1569,-0.145
1570,-0.115
1571,-0.015
1572,-0.05
1573,0.005
1574,0.015
1575,-0.01
1576,-0.065
1577,-0.09
1578,-0.11
1579,-0.065
1580,-0.075
1581,-0.03
1582,-0.01
1583,0.01
1584,-0.005
1585,0.01
1586,-0.035
1587,-0.085
1588,-0.115
1589,-0.095
1590,-0.135
1591,-0.075
1592,0
1593,0.015
1594,0.01
1595,-0.005
1596,-0.07
1597,-0.075
1598,-0.09
1599,-0.095
1600,-0.075
1601,-0.015
1602,0.045
1603,0.02
1604,-0.065
1605,-0.05
1606,-0.105
1607,-0.11
1608,-0.125
1609,-0.115
1610,-0.1
1611,0.01
1612,0.01
1613,0.01
1614,-0.035
1615,-0.015
1616,-0.1
1617,-0.145
1618,-0.14
1619,-0.15
1620,-0.14
1621,-0.01
1622,-0.005
1623,0.025
1624,0.015
1625,-0.025
1626,-0.14
1627,-0.12
1628,-0.09
1629,-0.11
1630,-0.085
1631,-0.05
1632,-0.01
1633,0.03
1634,0.015
1635,0.005
1636,-0.09
1637,-0.14
1638,-0.135
1639,-0.095
1640,-0.11
1641,-0.035
1642,0.02
1643,0.025
1644,-0.02
1645,-0.01
1646,-0.075
1647,-0.08
1648,-0.085
1649,-0.075
1650,-0.065
1651,0.02
1652,-0.02
1653,-0.015
1654,0.02
1655,0.03
1656,-0.015
1657,-0.035
1658,-0.04
1659,-0.045
1660,-0.005
1661,0.04
1662,0.075
1663,0.035
1664,0.035
1665,0.005
1666,-0.06
1667,-0.075
1668,-0.09
1669,-0.09
1670,-0.035
1671,-0.005
1672,0.015
1673,0.01
1674,-0.1
1675,-0.145
1676,-0.09
1677,-0.115
1678,-0.155
1679,-0.145
1680,-0.1
1681,0.005
1682,-0.02
1683,-0.03
1684,-0.03
1685,-0.11
1686,-0.15
1687,-0.15
1688,-0.18
1689,-0.125
1690,-0.075
1691,-0.02
1692,-0.015
1693,-0.015
1694,-0.02
1695,-0.055
1696,-0.14
1697,-0.225
1698,-0.15
1699,-0.11
1700,-0.08
1701,-0.065
1702,-0.055
1703,-0.05
1704,-0.03
1705,-0.115
1706,-0.145
1707,-0.14
1708,-0.13
1709,-0.14
1710,-0.055
1711,-0.08
1712,-0.025
1713,-0.035
1714,-0.125
1715,-0.12
1716,-0.145
1717,-0.15
1718,-0.15
1719,-0.15
1720,-0.105
1721,-0.055
1722,-0.07
1723,-0.115
1724,-0.09
1725,-0.13
1726,-0.075
1727,-0.03
1728,0.03
1729,0.075
1730,0.205
1731,0.295
1732,0.385
1733,0.445
1734,0.525
1735,0.46
1736,0.45
1737,0.41
1738,0.37
1739,0.35
1740,0.34
1741,0.24
1742,0.21
1743,0.085
1744,-0.025
1745,-0.175
1746,-0.225
1747,-0.27
1748,-0.27
1749,-0.235
1750,-0.14
1751,-0.07
1752,-0.035
1753,-0.06
1754,-0.03
1755,-0.11
1756,-0.105
1757,-0.1
1758,-0.085
1759,-0.095
1760,-0.06
1761,-0.03
1762,-0.025
1763,-0.035
1764,-0.005
1765,-0.035
1766,-0.145
1767,-0.155
1768,-0.135
1769,-0.075
1770,-0.02
1771,0.015
1772,-0.015
1773,-0.035
1774,-0.015
1775,-0.08
1776,-0.105
1777,-0.11
1778,-0.11
1779,-0.095
1780,0.025
1781,0.04
1782,0.045
1783,-0.01
1784,-0.005
1785,-0.1
1786,-0.07
1787,-0.085
1788,-0.06
1789,-0.08
1790,-0.005
1791,0.035
1792,0.05
1793,0.01
1794,-0.035
1795,-0.095
1796,-0.08
1797,-0.095
1798,-0.045
1799,-0.035
1800,0.03
1801,0.06
1802,0.025
1803,0.03
1804,0.015
1805,-0.07
1806,-0.085
1807,-0.035
1808,-0.02
1809,-0.02
1810,0.02
1811,0.095
1812,0.11
1813,0.07
1814,0.02
1815,-0.005
1816,-0.015
1817,-0.005
1818,0.005
1819,0.045
1820,0.1
1821,0.085
1822,0.1
1823,0.135
1824,0.075
1825,0
1826,0.025
1827,-0.005
1828,0.05
1829,0.105
1830,0.16
1831,0.175
1832,0.19
1833,0.17
1834,0.15
1835,0.115
1836,0.105
1837,0.08
1838,0.135
1839,0.21
1840,0.245
1841,0.23
1842,0.225
1843,0.22
1844,0.145
1845,0.15
1846,0.17
1847,0.165
1848,0.14
1849,0.21
1850,0.225
1851,0.21
1852,0.185
1853,0.215
1854,0.185
1855,0.15
1856,0.12
1857,0.115
1858,0.125
1859,0.155
1860,0.155
1861,0.145
1862,0.14
1863,0.14
1864,0.1
1865,0.035
1866,0.005
1867,-0.02
1868,0.005
1869,0.08
1870,0.095
1871,0.1
1872,0.075
1873,0.06
1874,-0.02
1875,-0.06
1876,-0.055
1877,-0.075
1878,-0.06
1879,-0.06
1880,-0.01
1881,-0.035
1882,-0.01
1883,0.015
1884,-0.08
1885,-0.11
1886,-0.16
1887,-0.115
1888,-0.11
1889,-0.04
1890,-0.005
1891,-0.015
1892,-0.02
1893,-0.015
1894,-0.075
1895,-0.125
1896,-0.155
1897,-0.155
1898,-0.125
1899,-0.03
1900,-0.03
1901,-0.065
1902,-0.02
1903,0.005
1904,-0.105
1905,-0.115
1906,-0.1
1907,-0.09
1908,-0.1
1909,-0.09
1910,-0.015
1911,-0.04
1912,-0.025
1913,-0.065
1914,-0.11
1915,-0.105
1916,-0.125
1917,-0.12
1918,-0.08
1919,-0.08
1920,-0.05
1921,0.015
1922,0
1923,0
1924,-0.12
1925,-0.13
1926,-0.11
1927,-0.13
1928,-0.115
1929,0.005
1930,-0.005
1931,-0.05
1932,-0.005
1933,-0.005
1934,-0.1
1935,-0.11
1936,-0.1
1937,-0.115
1938,-0.08
1939,0.01
1940,-0.04
1941,0.01
1942,0.025
1943,-0.01
1944,-0.14
1945,-0.145
1946,-0.1
1947,-0.105
1948,-0.105
1949,-0.005
1950,0.015
1951,0.01
1952,-0.04
1953,-0.085
1954,-0.09
1955,-0.11
1956,-0.115
1957,-0.135
1958,-0.095
1959,-0.04
1960,-0.01
1961,-0.04
1962,-0.065
1963,-0.085
1964,-0.12
1965,-0.12
1966,-0.115
1967,-0.085
1968,-0.06
1969,-0.02
1970,-0.005
1971,-0.02
1972,-0.01
1973,-0.055
1974,-0.11
1975,-0.12
1976,-0.12
1977,-0.125
1978,-0.13
1979,-0.05
1980,-0.015
1981,0.005
1982,-0.025
1983,-0.095
1984,-0.135
1985,-0.14
1986,-0.145
1987,-0.12
1988,-0.07
1989,-0.04
1990,0.005
1991,-0.02
1992,0.005
1993,-0.075
1994,-0.17
1995,-0.135
1996,-0.125
1997,-0.075
1998,-0.02
1999,0.015
2000,0
2001,-0.025
2002,0
2003,-0.04
2004,-0.09
2005,-0.1
2006,-0.1
2007,-0.07
2008,-0.045
2009,0.005
2010,0.05
2011,0.04
2012,0.07
2013,-0.055
2014,-0.155
2015,-0.095
2016,-0.075
2017,-0.065
2018,-0.035
2019,0.025
2020,0.03
2021,-0.015
2022,-0.09
2023,-0.115
2024,-0.105
2025,-0.115
2026,-0.145
2027,-0.135
2028,-0.055
2029,-0.035
2030,-0.035
2031,-0.055
2032,-0.06
2033,-0.105
2034,-0.115
2035,-0.145
2036,-0.14
2037,-0.115
2038,-0.04
2039,-0.05
2040,-0.04
2041,-0.045
2042,-0.06
2043,-0.12
2044,-0.135
2045,-0.15
2046,-0.155
2047,-0.17
2048,-0.065
2049,-0.13
2050,-0.055
2051,-0.05
2052,-0.095
2053,-0.175
2054,-0.165
2055,-0.14
2056,-0.155
2057,-0.135
2058,-0.085
2059,-0.085
2060,-0.045
2061,-0.06
2062,-0.07
2063,-0.135
2064,-0.165
2065,-0.18
2066,-0.155
2067,-0.145
2068,-0.095
2069,-0.09
2070,-0.06
2071,-0.05
2072,-0.11
2073,-0.16
2074,-0.17
2075,-0.19
2076,-0.22
2077,-0.18
2078,-0.125
2079,-0.07
2080,-0.005
2081,0.025
2082,0.075
2083,0.035
2084,0.07
2085,0.145
2086,0.19
2087,0.275
2088,0.51
2089,0.63
2090,0.665
2091,0.64
2092,0.605
2093,0.47
2094,0.39
2095,0.31
2096,0.22
2097,0.155
2098,0.06
2099,0.015
2100,-0.12
2101,-0.17
2102,-0.17
2103,-0.215
2104,-0.23
2105,-0.215
2106,-0.175
2107,-0.14
2108,-0.055
2109,-0.03
2110,0
2111,-0.025
2112,-0.1
2113,-0.13
2114,-0.145
2115,-0.125
2116,-0.135
2117,-0.115
2118,-0.09
2119,-0.06
2120,-0.005
2121,-0.005
2122,-0.045
2123,-0.135
2124,-0.15
2125,-0.13
2126,-0.145
2127,-0.085
2128,-0.045
2129,-0.045
2130,-0.015
2131,-0.01
2132,-0.045
2133,-0.095
2134,-0.13
2135,-0.12
2136,-0.105
2137,-0.045
2138,0
2139,-0.01
2140,-0.02
2141,-0.025
2142,-0.05
2143,-0.075
2144,-0.105
2145,-0.12
2146,-0.12
2147,-0.06
2148,-0.03
2149,0.005
2150,-0.01
2151,0.01
2152,-0.025
2153,-0.045
2154,-0.08
2155,-0.095
2156,-0.085
2157,0.005
2158,0.015
2159,0.01
2160,0.015
2161,-0.03
2162,-0.07
2163,-0.06
2164,-0.065
2165,-0.045
2166,-0.05
2167,-0.015
2168,0.05
2169,0.06
2170,0.065
2171,0.05
2172,0
2173,-0.02
2174,-0.03
2175,-0.05
2176,-0.05
2177,0.06
2178,0.1
2179,0.105
2180,0.085
2181,0.1
2182,0.045
2183,0.025
2184,0.025
2185,0.025
2186,0.075
2187,0.135
2188,0.195
2189,0.13
2190,0.165
2191,0.185
2192,0.12
2193,0.09
2194,0.095
2195,0.085
2196,0.12
2197,0.185
2198,0.22
2199,0.245
2200,0.21
2201,0.2
2202,0.16
2203,0.135
2204,0.13
2205,0.115
2206,0.11
2207,0.16
2208,0.18
2209,0.185
2210,0.205
2211,0.17
2212,0.12
2213,0.06
2214,0.065
2215,0.05
2216,0.07
2217,0.14
2218,0.135
2219,0.12
2220,0.08
2221,0.09
2222,-0.015
2223,-0.055
2224,-0.07
2225,-0.02
2226,-0.095
2227,-0.01
2228,0.045
2229,0.05
2230,0.025
2231,-0.04
2232,-0.095
2233,-0.115
2234,-0.12
2235,-0.075
2236,-0.08
2237,-0.035
2238,-0.045
2239,-0.025
2240,-0.08
2241,-0.06
2242,-0.11
2243,-0.13
2244,-0.135
2245,-0.13
2246,-0.15
2247,-0.06
2248,-0.02
2249,-0.02
2250,-0.055
2251,-0.065
2252,-0.12
2253,-0.13
2254,-0.12
2255,-0.155
2256,-0.125
2257,-0.05
2258,-0.01
2259,-0.055
2260,-0.05
2261,-0.08
2262,-0.115
2263,-0.14
2264,-0.175
2265,-0.18
2266,-0.11
2267,-0.045
2268,-0.03
2269,-0.065
2270,-0.095
2271,-0.085
2272,-0.12
2273,-0.145
2274,-0.13
2275,-0.1
2276,-0.095
2277,-0.09
2278,-0.055
2279,-0.03
2280,-0.025
2281,-0.045
2282,-0.13
2283,-0.145
2284,-0.165
2285,-0.12
2286,-0.065
2287,-0.01
2288,-0.015
2289,-0.04
2290,-0.04
2291,-0.06
2292,-0.09
2293,-0.095
2294,-0.1
2295,-0.105
2296,-0.12
2297,-0.03
2298,0
2299,-0.035
2300,-0.02
2301,-0.065
2302,-0.12
2303,-0.135
2304,-0.11
2305,-0.105
2306,-0.055
2307,-0.05
2308,-0.055
2309,-0.035
2310,-0.035
2311,-0.085
2312,-0.12
2313,-0.12
2314,-0.135
2315,-0.145
2316,-0.055
2317,-0.075
2318,-0.075
2319,-0.02
2320,-0.02
2321,-0.12
2322,-0.125
2323,-0.11
2324,-0.1
2325,-0.085
2326,-0.05
2327,-0.005
2328,-0.015
2329,-0.065
2330,-0.05
2331,-0.115
2332,-0.115
2333,-0.145
2334,-0.125
2335,-0.185
2336,-0.135
2337,-0.075
2338,-0.045
2339,-0.025
2340,-0.04
2341,-0.11
2342,-0.11
2343,-0.11
2344,-0.125
2345,-0.15
2346,-0.07
2347,-0.01
2348,-0.07
2349,-0.07
2350,-0.06
2351,-0.145
2352,-0.17
2353,-0.17
2354,-0.135
2355,-0.1
2356,-0.045
2357,0.015
2358,0.02
2359,-0.01
2360,-0.02
2361,-0.085
2362,-0.1
2363,-0.105
2364,-0.08
2365,-0.1
2366,-0.05
2367,-0.02
2368,-0.025
2369,-0.04
2370,-0.025
2371,-0.1
2372,-0.155
2373,-0.17
2374,-0.1
2375,-0.06
2376,0.015
2377,0.05
2378,0.035
2379,-0.005
2380,-0.05
2381,-0.11
2382,-0.07
2383,-0.07
2384,-0.09
2385,-0.06
2386,0.02
2387,0.045
2388,0.015
2389,-0.04
2390,-0.065
2391,-0.13
2392,-0.145
2393,-0.13
2394,-0.125
2395,-0.095
2396,-0.04
2397,-0.035
2398,-0.025
2399,-0.03
2400,-0.055
2401,-0.115
2402,-0.17
2403,-0.165
2404,-0.135
2405,-0.14
2406,-0.105
2407,-0.075
2408,-0.025
2409,-0.035
2410,-0.075
2411,-0.145
2412,-0.135
2413,-0.16
2414,-0.2
2415,-0.17
2416,-0.1
2417,-0.055
2418,-0.075
2419,-0.07
2420,-0.085
2421,-0.175
2422,-0.19
2423,-0.17
2424,-0.13
2425,-0.11
2426,-0.045
2427,-0.07
2428,-0.05
2429,-0.095
2430,-0.1
2431,-0.145
2432,-0.14
2433,-0.175
2434,-0.165
2435,-0.15
2436,-0.075
2437,-0.055
2438,-0.1
2439,-0.09
2440,-0.155
2441,-0.195
2442,-0.19
2443,-0.18
2444,-0.22
2445,-0.185
2446,-0.09
2447,-0.055
2448,-0.015
2449,0.035
2450,0.03
2451,0.07
2452,0.125
2453,0.2
2454,0.24
2455,0.325
2456,0.54
2457,0.695
2458,0.69
2459,0.665
2460,0.56
2461,0.485
2462,0.415
2463,0.325
2464,0.245
2465,0.19
2466,0.12
2467,0.025
2468,-0.095
2469,-0.155
2470,-0.195
2471,-0.2
2472,-0.19
2473,-0.15
2474,-0.115
2475,-0.085
2476,-0.03
2477,-0.045
2478,-0.02
2479,-0.01
2480,-0.09
2481,-0.11
2482,-0.15
2483,-0.165
2484,-0.13
2485,-0.065
2486,-0.05
2487,-0.035
2488,-0.03
2489,-0.02
2490,-0.085
2491,-0.11
2492,-0.105
2493,-0.11
2494,-0.065
2495,-0.035
2496,-0.04
2497,-0.015
2498,-0.005
2499,-0.03
2500,-0.07
2501,-0.11
2502,-0.115
2503,-0.095
2504,-0.07
2505,-0.03
2506,0.02
2507,0.015
2508,-0.01
2509,0.01
2510,-0.035
2511,-0.045
2512,-0.09
2513,-0.115
2514,-0.075
2515,-0.015
2516,0.025
2517,-0.025
2518,-0.015
2519,-0.005
2520,-0.06
2521,-0.065
2522,-0.07
2523,-0.045
2524,-0.045
2525,0.005
2526,0.025
2527,0.065
2528,0.055
2529,0.05
2530,-0.035
2531,-0.04
2532,-0.055
2533,-0.025
2534,0.035
2535,-0.005
2536,0.065
2537,0.05
2538,0.04
2539,0.04
2540,-0.01
2541,-0.01
2542,-0.005
2543,0.035
2544,0.065
2545,0.125
2546,0.135
2547,0.135
2548,0.135
2549,0.12
2550,0.04
2551,0.03
2552,0.03
2553,0.065
2554,0.13
2555,0.175
2556,0.2
2557,0.205
2558,0.2
2559,0.18
2560,0.18
2561,0.135
2562,0.095
2563,0.09
2564,0.21
2565,0.26
2566,0.27
2567,0.275
2568,0.26
2569,0.23
2570,0.175
2571,0.125
2572,0.145
2573,0.17
2574,0.19
2575,0.225
2576,0.265
2577,0.255
2578,0.255
2579,0.19
2580,0.15
2581,0.12
2582,0.11
2583,0.11
2584,0.115
2585,0.125
2586,0.16
2587,0.145
2588,0.11
2589,0.045
2590,0.015
2591,0.04
2592,-0.01
2593,-0.09
2594,0.035
2595,0.08
2596,0.1
2597,0.07
2598,0.065
2599,0.02
2600,-0.02
2601,-0.08
2602,-0.08
2603,-0.08
2604,-0.01
2605,0.03
2606,0.005
2607,-0.005
2608,0
2609,-0.045
2610,-0.09
2611,-0.105
2612,-0.08
2613,-0.09
2614,0
2615,0
2616,0.03
2617,0.005
2618,-0.045
2619,-0.055
2620,-0.11
2621,-0.115
2622,-0.095
2623,-0.095
2624,-0.02
2625,0
2626,0.01
2627,0.035
2628,0.035
2629,-0.105
2630,-0.115
2631,-0.085
2632,-0.08
2633,-0.085
2634,-0.045
2635,-0.02
2636,0.01
2637,0.015
2638,-0.01
2639,-0.05
2640,-0.065
2641,-0.085
2642,-0.065
2643,-0.05
2644,0.01
2645,0
2646,0.025
2647,0.015
2648,0.01
2649,-0.045
2650,-0.07
2651,-0.1
2652,-0.085
2653,-0.075
2654,-0.015
2655,0.005
2656,0.03
2657,0.03
2658,0.025
2659,-0.08
2660,-0.09
2661,-0.075
2662,-0.065
2663,-0.05
2664,0.03
2665,0.045
2666,0.06
2667,0.02
2668,0.02
2669,-0.01
2670,-0.09
2671,-0.105
2672,-0.075
2673,-0.065
2674,0.02
2675,0.04
2676,0.03
2677,-0.005
2678,0.015
2679,-0.08
2680,-0.085
2681,-0.075
2682,-0.03
2683,-0.055
2684,0.035
2685,0.045
2686,0.035
2687,0.02
2688,0.015
2689,-0.025
2690,-0.04
2691,-0.09
2692,-0.125
2693,-0.07
2694,0.02
2695,0.045
2696,-0.015
2697,-0.01
2698,-0.015
2699,-0.05
2700,-0.06
2701,-0.1
2702,-0.055
2703,-0.015
2704,0.01
2705,-0.01
2706,-0.03
2707,0
2708,0
2709,-0.07
2710,-0.09
2711,-0.095
2712,-0.08
2713,-0.04
2714,0.02
2715,0.035
2716,0.045
2717,0.015
2718,-0.025
2719,-0.08
2720,-0.06
2721,-0.115
2722,-0.075
2723,-0.02
2724,0.045
2725,0.045
2726,0.015
2727,-0.01
2728,-0.02
2729,-0.06
2730,-0.075
2731,-0.07
2732,-0.13
2733,-0.04
2734,-0.015
2735,0.005
2736,0.04
2737,-0.005
2738,-0.03
2739,-0.045
2740,-0.06
2741,-0.09
2742,-0.055
2743,-0.01
2744,0.005
2745,0.02
2746,-0.005
2747,-0.02
2748,-0.06
2749,-0.08
2750,-0.055
2751,-0.08
2752,-0.07
2753,-0.005
2754,-0.005
2755,0.005
2756,0.055
2757,0.01
2758,-0.03
2759,-0.04
2760,-0.055
2761,-0.035
2762,-0.045
2763,0.03
2764,0.055
2765,0.06
2766,0.03
2767,0.04
2768,-0.015
2769,-0.065
2770,-0.085
2771,-0.09
2772,-0.045
2773,0.07
2774,0.095
2775,0.09
2776,0.095
2777,0.1
2778,0.05
2779,0.005
2780,-0.065
2781,-0.07
2782,-0.005
2783,0.025
2784,0.08
2785,0.095
2786,0.065
2787,0.055
2788,-0.025
2789,-0.085
2790,-0.065
2791,-0.025
2792,-0.02
2793,0.005
2794,0.01
2795,0.035
2796,0.04
2797,0.005
2798,-0.07
2799,-0.095
2800,-0.09
2801,-0.07
2802,-0.06
2803,0
2804,0.025
2805,0.025
2806,-0.065
2807,-0.07
2808,-0.045
2809,-0.055
2810,-0.075
2811,-0.075
2812,-0.07
2813,0.005
2814,0.015
2815,0.035
2816,0.005
2817,-0.015
2818,-0.095
2819,-0.095
2820,-0.085
2821,-0.11
2822,-0.1
2823,-0.07
2824,0.005
2825,0.02
2826,0.03
2827,0
2828,-0.075
2829,-0.1
2830,-0.085
2831,-0.115
2832,-0.06
2833,0
2834,0
2835,-0.01
2836,-0.005
2837,-0.03
2838,-0.09
2839,-0.105
2840,-0.115
2841,-0.12
2842,-0.13
2843,-0.045
2844,-0.005
2845,-0.015
2846,-0.035
2847,-0.05
2848,-0.07
2849,-0.04
2850,-0.005
2851,0.105
2852,0.19
2853,0.31
2854,0.375
2855,0.465
2856,0.51
2857,0.62
2858,0.67
2859,0.69
2860,0.69
2861,0.615
2862,0.565
2863,0.515
2864,0.44
2865,0.385
2866,0.285
2867,0.145
2868,-0.065
2869,-0.135
2870,-0.175
2871,-0.185
2872,-0.085
2873,0.005
2874,0.03
2875,0.025
2876,0.015
2877,0.015
2878,-0.02
2879,-0.06
2880,-0.045
2881,-0.025
2882,-0.005
2883,0.01
2884,0.02
2885,0.01
2886,0.03
2887,0.015
2888,-0.05
2889,-0.075
2890,-0.075
2891,-0.025
2892,0.02
2893,0.045
2894,0.065
2895,0.025
2896,0.05
2897,0.01
2898,-0.02
2899,-0.045
2900,-0.03
2901,-0.005
2902,0.045
2903,0.065
2904,0.085
2905,0.06
2906,0.05
2907,0.03
2908,-0.025
2909,-0.055
2910,-0.015
2911,-0.015
2912,0.015
2913,0.11
2914,0.14
2915,0.09
2916,-0.01
2917,-0.035
2918,0
2919,-0.005
2920,0
2921,0.02
2922,0.045
2923,0.105
2924,0.11
2925,0.115
2926,0.08
2927,0.035
2928,0.025
2929,-0.005
2930,0.015
2931,0.025
2932,0.115
2933,0.11
2934,0.125
2935,0.15
2936,0.09
2937,0.04
2938,0.025
2939,0.03
2940,0.055
2941,0.07
2942,0.12
2943,0.17
2944,0.18
2945,0.185
2946,0.185
2947,0.135
2948,0.09
2949,0.09
2950,0.065
2951,0.11
2952,0.145
2953,0.19
2954,0.195
2955,0.225
2956,0.26
2957,0.19
2958,0.17
2959,0.175
2960,0.205
2961,0.22
2962,0.25
2963,0.285
2964,0.31
2965,0.285
2966,0.31
2967,0.255
2968,0.25
2969,0.21
2970,0.22
2971,0.235
2972,0.31
2973,0.34
2974,0.345
2975,0.335
2976,0.3
2977,0.26
2978,0.22
2979,0.19
2980,0.185
2981,0.205
2982,0.265
2983,0.265
2984,0.255
2985,0.275
2986,0.225
2987,0.13
2988,0.08
2989,0.085
2990,0.075
2991,0.11
2992,0.15
2993,0.165
2994,0.17
2995,0.155
2996,0.1
2997,0.04
2998,0.005
2999,-0.005
3000,-0.005
3001,0.03
3002,0.095
3003,0.105
3004,0.11
3005,0.005
3006,0.035
3007,-0.005
3008,-0.015
3009,-0.03
3010,-0.02
3011,-0.005
3012,0.06
3013,0.06
3014,0.06
3015,0.06
3016,0.02
3017,-0.035
3018,-0.065
3019,-0.045
3020,-0.025
3021,-0.025
3022,0.02
3023,0.03
3024,0.055
3025,0.035
3026,-0.035
3027,-0.05
3028,-0.04
3029,-0.04
3030,-0.025
3031,-0.01
3032,0.03
3033,0.045
3034,0.055
3035,0.025
3036,0.01
3037,-0.035
3038,-0.055
3039,-0.065
3040,-0.05
3041,0.045
3042,0.065
3043,0.035
3044,0.045
3045,0.065
3046,0.035
3047,-0.03
3048,-0.055
3049,-0.02
3050,-0.035
3051,0.05
3052,0.07
3053,0.07
3054,0.05
3055,0.065
3056,0.02
3057,-0.095
3058,-0.06
3059,-0.035
3060,-0.015
3061,0.04
3062,0.055
3063,0.02
3064,0.045
3065,0.085
3066,0.015
3067,-0.01
3068,-0.035
3069,-0.055
3070,-0.04
3071,0
3072,0.075
3073,0.065
3074,0.07
3075,0.06
3076,-0.015
3077,-0.045
3078,-0.065
3079,-0.035
3080,-0.025
3081,0.03
3082,0.085
3083,0.06
3084,0.055
3085,0.035
3086,0.01
3087,-0.005
3088,-0.035
3089,-0.025
3090,-0.04
3091,0.03
3092,0.075
3093,0.08
3094,0.09
3095,0.07
3096,-0.005
3097,-0.05
3098,-0.04
3099,-0.055
3100,-0.04
3101,0.035
3102,0.065
3103,0.025
3104,0.035
3105,0.02
3106,-0.015
3107,-0.045
3108,-0.065
3109,-0.025
3110,-0.01
3111,0.045
3112,0.03
3113,0.04
3114,0.035
3115,0
3116,-0.06
3117,-0.08
3118,-0.06
3119,-0.095
3120,-0.02
3121,0.075
3122,0.085
3123,0.095
3124,0.055
3125,0.06
3126,-0.03
3127,-0.04
3128,-0.055
3129,-0.03
3130,-0.025
3131,0.04
3132,0.055
3133,0.06
3134,0.055
3135,0.045
3136,-0.005
3137,-0.035
3138,-0.045
3139,-0.06
3140,-0.075
3141,0.015
3142,0.05
3143,0.035
3144,0.065
3145,0.015
3146,-0.05
3147,-0.07
3148,-0.06
3149,-0.05
3150,0
3151,0.05
3152,0.03
3153,0.04
3154,0.055
3155,0.02
3156,-0.035
3157,-0.07
3158,-0.07
3159,-0.04
3160,-0.025
3161,0.04
3162,0.06
3163,0.075
3164,0.06
3165,0.01
3166,-0.035
3167,-0.045
3168,-0.05
3169,-0.085
3170,-0.03
3171,0.04
3172,0.065
3173,0.1
3174,0.08
3175,0.03
3176,-0.03
3177,-0.09
3178,-0.08
3179,-0.06
3180,-0.015
3181,0.06
3182,0.06
3183,0.045
3184,0.05
3185,-0.015
3186,-0.06
3187,-0.1
3188,-0.06
3189,-0.07
3190,0.02
3191,0.05
3192,0.07
3193,0.045
3194,0.055
3195,0.005
3196,-0.045
3197,-0.095
3198,-0.05
3199,-0.015
3200,-0.015
3201,0.04
3202,0.045
3203,0.065
3204,0.045
3205,-0.05
3206,-0.085
3207,-0.085
3208,-0.105
3209,-0.05
3210,0.03
3211,0.075
3212,0.075
3213,0.055
3214,0.035
3215,0
3216,-0.015
3217,-0.05
3218,-0.055
3219,-0.03
3220,0.06
3221,0.105
3222,0.09
3223,0.105
3224,0.065
3225,0.005
3226,-0.055
3227,-0.045
3228,0
3229,0.005
3230,0.06
3231,0.1
3232,0.135
3233,0.1
3234,0.07
3235,0.01
3236,0.02
3237,-0.015
3238,0.02
3239,0.01
3240,0.105
3241,0.12
3242,0.115
3243,0.05
3244,0.08
3245,-0.005
3246,0
3247,-0.015
3248,-0.025
3249,-0.02
3250,0.04
3251,0.04
3252,0.06
3253,0.04
3254,0.045
3255,-0.035
3256,-0.055
3257,-0.065
3258,-0.04
3259,-0.045
3260,0.01
3261,0.055
3262,0.08
3263,0.04
3264,0.06
3265,-0.02
3266,-0.095
3267,-0.085
3268,-0.055
3269,-0.055
3270,-0.01
3271,0.06
3272,0.065
3273,0.035
3274,-0.01
3275,-0.06
3276,-0.065
3277,-0.075
3278,-0.065
3279,-0.075
3280,0.045
3281,0.045
3282,0.06
3283,0.03
3284,-0.01
3285,-0.045
3286,-0.085
3287,-0.045
3288,-0.06
3289,-0.04
3290,0.05
3291,0.045
3292,0.035
3293,0.025
3294,0.015
3295,-0.065
3296,-0.055
3297,-0.09
3298,-0.06
3299,-0.05
3300,0.005
3301,0
3302,0.02
3303,-0.03
3304,-0.05
3305,-0.05
3306,-0.06
3307,-0.015
3308,0.03
3309,0.11
3310,0.205
3311,0.31
3312,0.4
3313,0.455
3314,0.49
3315,0.565
3316,0.635
3317,0.595
3318,0.625
3319,0.615
3320,0.595
3321,0.565
3322,0.475
3323,0.365
3324,0.2
3325,0
3326,-0.075
3327,-0.155
3328,-0.135
3329,-0.11
3330,-0.09
3331,-0.055
3332,-0.045
3333,-0.045
3334,-0.025
3335,-0.025
3336,-0.015
3337,-0.03
3338,-0.005
3339,0.025
3340,0.065
3341,0.09
3342,0.025
3343,0.005
3344,-0.005
3345,-0.01
3346,-0.045
3347,-0.04
3348,-0.03
3349,0.02
3350,0.055
3351,0.045
3352,0.095
3353,0.09
3354,0.035
3355,-0.015
3356,0
3357,0.01
3358,0.03
3359,0.095
3360,0.095
3361,0.035
3362,0.045
3363,0.05
3364,0.035
3365,-0.015
3366,-0.035
3367,-0.02
3368,-0.025
3369,0.06
3370,0.105
3371,0.09
3372,0.065
3373,0.06
3374,0.055
3375,0.02
3376,0.025
3377,0.035
3378,0.025
3379,0.115
3380,0.09
3381,0.08
3382,0.1
3383,0.09
3384,0.025
3385,0.055
3386,0.03
3387,0.065
3388,0.075
3389,0.13
3390,0.175
3391,0.16
3392,0.075
3393,0.09
3394,0.065
3395,0.05
3396,0.045
3397,0.07
3398,0.07
3399,0.15
3400,0.185
3401,0.155
3402,0.14
3403,0.16
3404,0.135
3405,0.11
3406,0.1
3407,0.125
3408,0.12
3409,0.155
3410,0.24
3411,0.26
3412,0.265
3413,0.235
3414,0.21
3415,0.135
3416,0.145
3417,0.215
3418,0.21
3419,0.29
3420,0.285
3421,0.3
3422,0.33
3423,0.32
3424,0.195
3425,0.215
3426,0.22
3427,0.24
3428,0.24
3429,0.295
3430,0.34
3431,0.35
3432,0.355
3433,0.32
3434,0.235
3435,0.19
3436,0.19
3437,0.21
3438,0.255
3439,0.305
3440,0.305
3441,0.245
3442,0.24
3443,0.215
3444,0.19
3445,0.19
3446,0.13
3447,0.135
3448,0.12
3449,0.18
3450,0.22
3451,0.185
3452,0.195
3453,0.11
3454,0.05
3455,0.04
3456,0.04
3457,0.055
3458,0.09
3459,0.12
3460,0.105
3461,0.11
3462,0.105
3463,0.075
3464,0.01
3465,-0.02
3466,-0.035
3467,-0.02
3468,0.005
3469,0.06
3470,0.08
3471,0.09
3472,0.075
3473,0.02
3474,-0.035
3475,-0.035
3476,-0.065
3477,-0.015
3478,0.005
3479,0.075
3480,0.045
3481,0.03
3482,0.05
3483,0.03
3484,-0.025
3485,-0.05
3486,-0.03
3487,-0.015
3488,0.05
3489,0.035
3490,0.015
3491,0.04
3492,0.005
3493,0
3494,-0.015
3495,-0.07
3496,-0.04
3497,-0.02
3498,0.02
3499,0.045
3500,0.065
3501,0.08
3502,0.08
3503,0.015
3504,-0.06
3505,-0.04
3506,-0.035
3507,-0.045
3508,0.035
3509,0.105
3510,0.11
3511,0.105
3512,0.095
3513,0.01
3514,-0.025
3515,-0.045
3516,-0.015
3517,-0.025
3518,-0.02
3519,0.1
3520,0.125
3521,0.065
3522,0.055
3523,-0.005
3524,-0.02
3525,-0.01
3526,-0.015
3527,0.015
3528,0.025
3529,0.055
3530,0.065
3531,0.06
3532,0.04
3533,0.025
3534,-0.01
3535,-0.04
3536,-0.045
3537,-0.015
3538,0.045
3539,0.06
3540,0.075
3541,0.035
3542,0.055
3543,0.025
3544,-0.02
3545,-0.035
3546,-0.015
3547,-0.015
3548,0.01
3549,0.075
3550,0.09
3551,0.055
3552,-0.035
3553,-0.025
3554,-0.015
3555,-0.01
3556,-0.065
3557,-0.07
3558,0.065
3559,0.04
3560,0.05
3561,0.06
3562,0.05
3563,0.015
3564,-0.07
3565,-0.065
3566,-0.025
3567,-0.02
3568,0.01
3569,0.055
3570,0.01
3571,0.045
3572,0.06
3573,-0.015
3574,-0.025
3575,-0.025
3576,-0.03
3577,-0.02
3578,0.05
3579,0.065
3580,0.06
3581,0.055
3582,0.03
3583,-0.015
3584,-0.025
3585,-0.025
3586,-0.05
3587,-0.025
3588,0.005
3589,0.085
3590,0.035
3591,-0.005
3592,0.015
3593,-0.06
3594,-0.065
3595,-0.045
3596,-0.055
3597,-0.045
3598,0.045
3599,0.055
3600,0.035
3601,0.06
3602,0.055
3603,-0.07
3604,-0.065
3605,-0.07
3606,-0.045
3607,-0.07
3608,0.025
3609,0.07
3610,0.065
3611,0.075
3612,0.035
3613,-0.065
3614,-0.065
3615,-0.065
3616,-0.055
3617,-0.04
3618,0.055
3619,0.05
3620,0.02
3621,0.04
3622,0.015
3623,-0.045
3624,-0.05
3625,-0.05
3626,-0.085
3627,-0.01
3628,0.045
3629,0.03
3630,0.01
3631,0.045
3632,0.03
3633,-0.025
3634,-0.085
3635,-0.055
3636,-0.065
3637,-0.075
3638,0.045
3639,0.055
3640,0.045
3641,0.035
3642,-0.02
3643,-0.06
3644,-0.045
3645,-0.03
3646,0.005
3647,-0.015
3648,0.06
3649,0.09
3650,0.05
3651,0.065
3652,0.03
3653,-0.02
3654,-0.05
3655,-0.015
3656,-0.025
3657,0.06
3658,0.09
3659,0.105
3660,0.1
3661,0.095
3662,0.07
3663,0.02
3664,0.01
3665,0.035
3666,-0.045
3667,0.01
3668,0.12
3669,0.14
3670,0.095
3671,0.12
3672,0.07
3673,-0.04
3674,-0.05
3675,-0.025
3676,-0.05
3677,0.03
3678,0.075
3679,0.1
3680,0.045
3681,0.04
3682,-0.02
3683,-0.05
3684,-0.065
3685,-0.06
3686,-0.055
3687,0.035
3688,0.035
3689,0.05
3690,0.07
3691,0.005
3692,-0.06
3693,-0.025
3694,-0.06
3695,-0.05
3696,-0.04
3697,0.035
3698,0.035
3699,0.01
3700,0.025
3701,0
3702,-0.04
3703,-0.065
3704,-0.1
3705,-0.115
3706,-0.075
3707,0.02
3708,0.055
3709,0.045
3710,0.02
3711,0.04
3712,-0.08
3713,-0.155
3714,-0.095
3715,-0.035
3716,0.005
3717,0.035
3718,0.03
3719,0.055
3720,0.015
3721,0.02
3722,-0.085
3723,-0.095
3724,-0.045
3725,-0.055
3726,-0.065
3727,-0.01
3728,0.01
3729,0.03
3730,0.01
3731,-0.015
3732,-0.095
3733,-0.12
3734,-0.06
3735,-0.05
3736,0.03
3737,0.125
3738,0.205
3739,0.305
3740,0.34
3741,0.385
3742,0.395
3743,0.47
3744,0.59
3745,0.65
3746,0.65
3747,0.625
3748,0.59
3749,0.575
3750,0.475
3751,0.37
3752,0.215
3753,0.04
3754,-0.055
3755,-0.125
3756,-0.135
3757,-0.05
3758,-0.02
3759,0.005
3760,-0.005
3761,0.005
3762,-0.02
3763,-0.055
3764,-0.05
3765,-0.005
3766,-0.015
3767,0.045
3768,0.075
3769,0.045
3770,0.03
3771,0.02
3772,-0.035
3773,-0.06
3774,-0.055
3775,-0.04
3776,0.02
3777,0.055
3778,0.05
3779,0.075
3780,0.06
3781,0.04
3782,-0.025
3783,-0.05
3784,-0.05
3785,-0.015
3786,0.015
3787,0.085
3788,0.09
3789,0.04
3790,0.065
3791,0.035
3792,0
3793,-0.015
3794,-0.04
3795,-0.015
3796,0.035
3797,0.065
3798,0.08
3799,0.09
3800,0.095
3801,0.045
3802,0.025
3803,0.005
3804,0
3805,-0.005
3806,0.065
3807,0.11
3808,0.065
3809,0.105
3810,0.075
3811,0.07
3812,0.04
3813,0.015
3814,-0.035
3815,0.005
3816,0.08
3817,0.125
3818,0.165
3819,0.115
3820,0.12
3821,0.09
3822,0.04
3823,0.015
3824,0.05
3825,0.055
3826,0.11
3827,0.165
3828,0.16
3829,0.175
3830,0.18
3831,0.135
3832,0.11
3833,0.01
3834,0.06
3835,0.08
3836,0.15
3837,0.185
3838,0.225
3839,0.23
3840,0.22
3841,0.185
3842,0.14
3843,0.15
3844,0.17
3845,0.19
3846,0.245
3847,0.27
3848,0.295
3849,0.325
3850,0.3
3851,0.21
3852,0.205
3853,0.19
3854,0.23
3855,0.225
3856,0.27
3857,0.31
3858,0.315
3859,0.27
3860,0.325
3861,0.245
3862,0.205
3863,0.21
3864,0.21
3865,0.205
3866,0.26
3867,0.26
3868,0.25
3869,0.235
3870,0.265
3871,0.215
3872,0.135
3873,0.11
3874,0.1
3875,0.1
3876,0.185
3877,0.2
3878,0.21
3879,0.15
3880,0.105
3881,0.08
3882,0.035
3883,0.025
3884,0.035
3885,0.035
3886,0.1
3887,0.13
3888,0.13
3889,0.055
3890,0.055
3891,-0.045
3892,-0.04
3893,-0.065
3894,-0.06
3895,-0.045
3896,0.035
3897,0.07
3898,0.065
3899,0.09
3900,0.08
3901,0.01
3902,-0.065
3903,-0.04
3904,-0.045
3905,-0.015
3906,0.035
3907,0.055
3908,0.07
3909,0.05
3910,0.04
3911,-0.04
3912,-0.12
3913,-0.11
3914,-0.06
3915,0.01
3916,0.04
3917,0.065
3918,0.06
3919,0.035
3920,0.025
3921,-0.02
3922,-0.045
3923,-0.055
3924,-0.1
3925,-0.04
3926,0.045
3927,0.01
3928,-0.005
3929,0.025
3930,0.02
3931,-0.005
3932,-0.03
3933,-0.08
3934,-0.025
3935,0.005
3936,0.04
3937,0.09
3938,0.06
3939,0.05
3940,0.03
3941,-0.035
3942,-0.04
3943,-0.045
3944,-0.04
3945,0.015
3946,0.08
3947,0.09
3948,0.08
3949,0.05
3950,-0.01
3951,-0.045
3952,-0.045
3953,-0.055
3954,-0.015
3955,-0.005
3956,0.03
3957,0.035
3958,0.07
3959,0.05
3960,0.015
3961,-0.08
3962,-0.06
3963,-0.025
3964,0
3965,-0.02
3966,0.04
3967,0.035
3968,0.035
3969,0.07
3970,0.005
3971,-0.03
3972,-0.03
3973,-0.06
3974,-0.025
3975,0.035
3976,0.04
3977,0.065
3978,0.065
3979,0.02
3980,-0.03
3981,-0.055
3982,-0.075
3983,-0.04
3984,-0.025
3985,0.03
3986,0.09
3987,-0.005
3988,-0.025
3989,0
3990,-0.04
3991,-0.055
3992,-0.065
3993,-0.1
3994,-0.075
3995,0.015
3996,0.045
3997,0.04
3998,0.03
3999,0.025
4000,-0.04
4001,-0.06
4002,-0.08
4003,-0.035
4004,-0.06
4005,-0.04
4006,0.03
4007,0.04
4008,0.02
4009,0.01
4010,-0.03
4011,-0.04
4012,-0.085
4013,-0.11
4014,-0.065
4015,0
4016,0.035
4017,0.03
4018,0.03
4019,0.01
4020,-0.045
4021,-0.055
4022,-0.07
4023,-0.075
4024,-0.08
4025,0.02
4026,0.005
4027,0.06
4028,0.035
4029,-0.07
4030,-0.05
4031,-0.11
4032,-0.105
4033,-0.055
4034,-0.045
4035,-0.065
4036,-0.03
4037,0.045
4038,0.05
4039,0.03
4040,-0.07
4041,-0.075
4042,-0.09
4043,-0.08
4044,-0.06
4045,-0.025
4046,-0.01
4047,0.03
4048,0.02
4049,0.005
4050,-0.055
4051,-0.08
4052,-0.105
4053,-0.065
4054,-0.04
4055,-0.005
4056,0.02
4057,0.045
4058,-0.01
4059,-0.03
4060,-0.065
4061,-0.085
4062,-0.1
4063,-0.105
4064,-0.045
4065,-0.03
4066,0.015
4067,0.05
4068,0.075
4069,0.035
4070,-0.13
4071,-0.125
4072,-0.08
4073,-0.09
4074,-0.055
4075,0.02
4076,0.035
4077,0.04
4078,0.04
4079,0.02
4080,-0.035
4081,-0.03
4082,-0.06
4083,-0.065
4084,-0.025
4085,0.03
4086,0.02
4087,-0.005
4088,0.035
4089,0.04
4090,-0.055
4091,-0.055
4092,-0.08
4093,-0.045
4094,0.005
4095,0.055
4096,0.095
4097,0.115
4098,0.085
4099,0.04
4100,0
4101,-0.025
4102,-0.03
4103,0
4104,0.015
4105,0.035
4106,0.06
4107,0.035
4108,0.05
4109,0.005
4110,-0.045
4111,-0.06
4112,-0.055
4113,-0.045
4114,-0.015
4115,-0.01
4116,0.04
4117,-0.005
4118,0
4119,-0.015
4120,-0.085
4121,-0.1
4122,-0.07
4123,-0.075
4124,-0.04
4125,0
4126,0
4127,0.015
4128,0.01
4129,-0.025
4130,-0.095
4131,-0.13
4132,-0.13
4133,-0.09
4134,-0.04
4135,-0.005
4136,-0.015
4137,-0.01
4138,-0.015
4139,-0.06
4140,-0.075
4141,-0.125
4142,-0.12
4143,-0.11
4144,-0.05
4145,-0.025
4146,0
4147,0.015
4148,-0.01
4149,-0.095
4150,-0.135
4151,-0.17
4152,-0.105
4153,-0.08
4154,-0.03
4155,0
4156,0.015
4157,-0.03
4158,-0.06
4159,-0.1
4160,-0.095
4161,-0.145
4162,-0.135
4163,-0.09
4164,-0.055
4165,-0.05
4166,-0.04
4167,-0.095
4168,0.035
4169,0.055
4170,0.08
4171,0.11
4172,0.19
4173,0.225
4174,0.355
4175,0.465
4176,0.625
4177,0.74
4178,0.72
4179,0.63
4180,0.55
4181,0.45
4182,0.435
4183,0.395
4184,0.35
4185,0.25
4186,0.11
4187,-0.015
4188,-0.1
4189,-0.18
4190,-0.195
4191,-0.185
4192,-0.175
4193,-0.135
4194,-0.005
4195,0.035
4196,0.05
4197,0.06
4198,0.04
4199,-0.045
4200,-0.08
4201,-0.09
4202,-0.09
4203,-0.075
4204,0.025
4205,0.035
4206,0.025
4207,-0.02
4208,0
4209,-0.045
4210,-0.07
4211,-0.055
4212,-0.135
4213,-0.07
4214,0.025
4215,0.045
4216,0.075
4217,0.015
4218,-0.015
4219,-0.085
4220,-0.085
4221,-0.045
4222,-0.08
4223,-0.055
4224,0.05
4225,0.075
4226,0.07
4227,0.04
4228,0.005
4229,-0.04
4230,-0.045
4231,-0.06
4232,-0.03
4233,0.015
4234,0.04
4235,0.065
4236,0.09
4237,0.07
4238,0.03
4239,-0.025
4240,-0.02
4241,-0.025
4242,-0.04
4243,0.015
4244,0.035
4245,0.08
4246,0.12
4247,0.08
4248,0.04
4249,-0.04
4250,-0.05
4251,-0.035
4252,-0.05
4253,0.05
4254,0.145
4255,0.135
4256,0.115
4257,0.08
4258,0.03
4259,0.01
4260,0.035
4261,0.005
4262,0.045
4263,0.105
4264,0.165
4265,0.165
4266,0.16
4267,0.11
4268,0.095
4269,0.08
4270,0.065
4271,0.07
4272,0.1
4273,0.17
4274,0.2
4275,0.17
4276,0.195
4277,0.225
4278,0.175
4279,0.13
4280,0.125
4281,0.13
4282,0.155
4283,0.23
4284,0.25
4285,0.275
4286,0.28
4287,0.275
4288,0.215
4289,0.175
4290,0.175
4291,0.21
4292,0.19
4293,0.165
4294,0.28
4295,0.3
4296,0.26
4297,0.28
4298,0.185
4299,0.165
4300,0.125
4301,0.155
4302,0.145
4303,0.205
4304,0.22
4305,0.215
4306,0.205
4307,0.185
4308,0.13
4309,0.045
4310,-0.005
4311,0.035
4312,0.04
4313,0.075
4314,0.09
4315,0.11
4316,0.105
4317,0.125
4318,0.045
4319,-0.005
4320,-0.09
4321,-0.06
4322,-0.05
4323,0.04
4324,0.065
4325,0.015
4326,0.005
4327,0.02
4328,-0.01
4329,-0.04
4330,-0.09
4331,-0.065
4332,-0.055
4333,-0.01
4334,0.04
4335,0.015
4336,-0.015
4337,0.005
4338,-0.11
4339,-0.085
4340,-0.07
4341,-0.05
4342,-0.075
4343,0.01
4344,0.005
4345,0.005
4346,0.03
4347,0.02
4348,-0.055
4349,-0.085
4350,-0.11
4351,-0.12
4352,-0.11
4353,0.01
4354,0.045
4355,0.035
4356,0
4357,-0.005
4358,-0.06
4359,-0.115
4360,-0.105
4361,-0.085
4362,-0.05
4363,-0.01
4364,0.03
4365,0.045
4366,0.015
4367,-0.005
4368,-0.095
4369,-0.075
4370,-0.075
4371,-0.05
4372,-0.045
4373,-0.01
4374,0.005
4375,0.01
4376,0.015
4377,0
4378,-0.05
4379,-0.055
4380,-0.085
4381,-0.105
4382,-0.08
4383,0.015
4384,0.055
4385,0.02
4386,-0.025
4387,-0.02
4388,-0.045
4389,-0.09
4390,-0.13
4391,-0.05
4392,-0.015
4393,0.04
4394,0.025
4395,0.035
4396,0.045
4397,-0.07
4398,-0.07
4399,-0.05
4400,-0.06
4401,-0.04
4402,-0.015
4403,0.03
4404,0.045
4405,0.025
4406,0.005
4407,-0.01
4408,-0.06
4409,-0.11
4410,-0.095
4411,-0.085
4412,-0.015
4413,0.01
4414,0.01
4415,-0.01
4416,-0.025
4417,-0.06
4418,-0.09
4419,-0.07
4420,-0.075
4421,-0.06
4422,-0.065
4423,-0.02
4424,0.045
4425,-0.01
4426,0.005
4427,-0.015
4428,-0.115
4429,-0.145
4430,-0.08
4431,-0.06
4432,0.005
4433,0.015
4434,-0.01
4435,-0.005
4436,0.01
4437,-0.015
4438,-0.08
4439,-0.085
4440,-0.11
4441,-0.07
4442,-0.06
4443,-0.01
4444,0.005
4445,-0.01
4446,-0.035
4447,-0.09
4448,-0.085
4449,-0.11
4450,-0.085
4451,-0.075
4452,-0.03
4453,-0.005
4454,0
4455,-0.015
4456,-0.015
4457,-0.07
4458,-0.105
4459,-0.11
4460,-0.1
4461,-0.065
4462,-0.025
4463,-0.015
4464,0.015
4465,0
4466,-0.035
4467,-0.09
4468,-0.06
4469,-0.075
4470,-0.11
4471,-0.035
4472,-0.025
4473,-0.05
4474,0.025
4475,0.01
4476,-0.02
4477,-0.095
4478,-0.095
4479,-0.095
4480,-0.085
4481,-0.12
4482,-0.04
4483,-0.02
4484,0
4485,-0.025
4486,0.015
4487,-0.07
4488,-0.12
4489,-0.11
4490,-0.095
4491,-0.08
4492,-0.015
4493,-0.015
4494,-0.02
4495,-0.05
4496,-0.03
4497,-0.08
4498,-0.105
4499,-0.12
4500,-0.08
4501,-0.075
4502,0.01
4503,0
4504,0.03
4505,0.015
4506,0.01
4507,-0.06
4508,-0.05
4509,-0.06
4510,-0.08
4511,-0.04
4512,0.02
4513,0.035
4514,0.03
4515,0.055
4516,0.01
4517,-0.01
4518,-0.015
4519,-0.085
4520,-0.015
4521,-0.025
4522,0.06
4523,0.045
4524,0.06
4525,0.095
4526,0.045
4527,-0.025
4528,-0.055
4529,-0.055
4530,-0.05
4531,-0.045
4532,0.035
4533,0.045
4534,0.035
4535,0.03
4536,-0.01
4537,-0.07
4538,-0.1
4539,-0.075
4540,-0.09
4541,-0.085
4542,-0.025
4543,0.01
4544,0.015
4545,-0.005
4546,-0.035
4547,-0.08
4548,-0.12
4549,-0.15
4550,-0.115
4551,-0.08
4552,0.005
4553,-0.005
4554,0.005
4555,-0.01
4556,-0.03
4557,-0.085
4558,-0.115
4559,-0.135
4560,-0.12
4561,-0.1
4562,-0.03
4563,-0.025
4564,-0.015
4565,-0.02
4566,-0.065
4567,-0.135
4568,-0.105
4569,-0.145
4570,-0.125
4571,-0.035
4572,-0.005
4573,0
4574,-0.035
4575,-0.075
4576,-0.1
4577,-0.1
4578,-0.125
4579,-0.14
4580,-0.105
4581,-0.09
4582,-0.05
4583,-0.03
4584,-0.02
4585,-0.07
4586,-0.11
4587,-0.145
4588,-0.175
4589,-0.145
4590,-0.06
4591,0.05
4592,0.145
4593,0.2
4594,0.255
4595,0.275
4596,0.265
4597,0.375
4598,0.45
4599,0.54
4600,0.63
4601,0.665
4602,0.62
4603,0.59
4604,0.5
4605,0.415
4606,0.24
4607,0.125
4608,0.005
4609,-0.105
4610,-0.16
4611,-0.15
4612,-0.115
4613,-0.085
4614,-0.105
4615,-0.05
4616,-0.135
4617,-0.14
4618,-0.105
4619,-0.105
4620,-0.07
4621,-0.015
4622,-0.01
4623,0.015
4624,0
4625,-0.02
4626,-0.14
4627,-0.125
4628,-0.095
4629,-0.08
4630,-0.06
4631,-0.005
4632,0.03
4633,0.025
4634,0.015
4635,0
4636,-0.05
4637,-0.07
4638,-0.08
4639,-0.095
4640,-0.14
4641,-0.03
4642,0.035
4643,0.055
4644,0.02
4645,-0.01
4646,-0.07
4647,-0.09
4648,-0.085
4649,-0.065
4650,-0.045
4651,-0.025
4652,0.055
4653,0.05
4654,0.04
4655,0.025
4656,-0.065
4657,-0.065
4658,-0.07
4659,-0.055
4660,-0.04
4661,0.01
4662,0.055
4663,0.06
4664,0.08
4665,0.04
4666,-0.06
4667,-0.07
4668,-0.05
4669,-0.025
4670,-0.01
4671,0.065
4672,0.095
4673,0.1
4674,0.085
4675,0.04
4676,0.02
4677,0
4678,0.005
4679,-0.045
4680,-0.025
4681,0.11
4682,0.095
4683,0.06
4684,0.09
4685,0.075
4686,0.035
4687,0.055
4688,0.015
4689,0.08
4690,0.09
4691,0.145
4692,0.135
4693,0.16
4694,0.145
4695,0.155
4696,0.105
4697,0.11
4698,0.09
4699,0.13
4700,0.165
4701,0.25
4702,0.23
4703,0.215
4704,0.22
4705,0.23
4706,0.18
4707,0.14
4708,0.18
4709,0.18
4710,0.2
4711,0.275
4712,0.275
4713,0.23
4714,0.26
4715,0.235
4716,0.21
4717,0.16
4718,0.16
4719,0.14
4720,0.205
4721,0.22
4722,0.23
4723,0.22
4724,0.215
4725,0.175
4726,0.11
4727,0.085
4728,0.095
4729,0.085
4730,0.13
4731,0.175
4732,0.17
4733,0.155
4734,0.13
4735,0.045
4736,-0.025
4737,0.005
4738,-0.03
4739,-0.045
4740,0.04
4741,0.075
4742,0.08
4743,0.06
4744,0.025
4745,-0.045
4746,-0.055
4747,-0.07
4748,-0.07
4749,-0.085
4750,-0.015
4751,0
4752,0.02
4753,0.03
4754,0.025
4755,-0.075
4756,-0.09
4757,-0.09
4758,-0.12
4759,-0.125
4760,-0.055
4761,-0.005
4762,0.02
4763,0.03
4764,0.005
4765,-0.075
4766,-0.08
4767,-0.12
4768,-0.105
4769,-0.09
4770,-0.035
4771,-0.025
4772,0.025
4773,0.025
4774,-0.03
4775,-0.095
4776,-0.135
4777,-0.15
4778,-0.095
4779,-0.065
4780,-0.025
4781,-0.01
4782,0
4783,-0.01
4784,0
4785,-0.065
4786,-0.09
4787,-0.13
4788,-0.105
4789,-0.08
4790,0.05
4791,0.01
4792,0.02
4793,-0.005
4794,-0.02
4795,-0.095
4796,-0.095
4797,-0.1
4798,-0.1
4799,-0.115
4800,0.01
4801,0.03
4802,0.025
4803,0.01
4804,-0.02
4805,-0.07
4806,-0.08
4807,-0.085
4808,-0.06
4809,-0.07
4810,0
4811,0.03
4812,0.015
4813,0.02
4814,-0.035
4815,-0.165
4816,-0.105
4817,-0.095
4818,-0.06
4819,-0.075
4820,-0.01
4821,0
4822,0.015
4823,0.025
4824,0.005
4825,-0.08
4826,-0.14
4827,-0.115
4828,-0.09
4829,-0.055
4830,-0.01
4831,-0.01
4832,0
4833,-0.01
4834,-0.035
4835,-0.105
4836,-0.09
4837,-0.1
4838,-0.06
4839,-0.07
4840,-0.025
4841,-0.015
4842,-0.045
4843,-0.01
4844,-0.03
4845,-0.145
4846,-0.135
4847,-0.1
4848,-0.13
4849,-0.085
4850,-0.035
4851,0.01
4852,-0.03
4853,-0.09
4854,-0.06
4855,-0.08
4856,-0.1
4857,-0.11
4858,-0.1
4859,-0.075
4860,-0.015
4861,-0.04
4862,-0.05
4863,-0.015
4864,-0.065
4865,-0.12
4866,-0.105
4867,-0.12
4868,-0.145
4869,-0.075
4870,-0.015
4871,0
4872,-0.005
4873,-0.025
4874,-0.06
4875,-0.115
4876,-0.135
4877,-0.115
4878,-0.1
4879,-0.04
4880,-0.02
4881,0.01
4882,-0.035
4883,-0.06
4884,-0.065
4885,-0.115
4886,-0.17
4887,-0.16
4888,-0.15
4889,-0.1
4890,-0.02
4891,-0.015
4892,-0.025
4893,-0.01
4894,-0.095
4895,-0.105
4896,-0.095
4897,-0.12
4898,-0.125
4899,-0.095
4900,-0.045
4901,-0.02
4902,-0.035
4903,0
4904,-0.08
4905,-0.145
4906,-0.125
4907,-0.11
4908,-0.105
4909,-0.06
4910,-0.06
4911,0.01
4912,0.01
4913,0.01
4914,-0.07
4915,-0.1
4916,-0.085
4917,-0.055
4918,-0.015
4919,0.015
4920,-0.02
4921,-0.02
4922,-0.01
4923,-0.04
4924,-0.125
4925,-0.105
4926,-0.075
4927,-0.045
4928,-0.045
4929,0.03
4930,0.075
4931,0.05
4932,0.02
4933,0.02
4934,0.01
4935,-0.09
4936,-0.055
4937,-0.075
4938,-0.085
4939,0.02
4940,0.075
4941,0.055
4942,-0.005
4943,0
4944,-0.075
4945,-0.095
4946,-0.1
4947,-0.11
4948,-0.11
4949,-0.045
4950,-0.02
4951,-0.015
4952,-0.02
4953,-0.025
4954,-0.105
4955,-0.12
4956,-0.13
4957,-0.13
4958,-0.115
4959,-0.065
4960,-0.06
4961,0
4962,0.005
4963,-0.05
4964,-0.175
4965,-0.165
4966,-0.15
4967,-0.175
4968,-0.13
4969,-0.08
4970,-0.045
4971,-0.02
4972,-0.02
4973,-0.04
4974,-0.09
4975,-0.14
4976,-0.165
4977,-0.165
4978,-0.12
4979,-0.05
4980,-0.03
4981,-0.015
4982,-0.04
4983,-0.07
4984,-0.135
4985,-0.17
4986,-0.155
4987,-0.13
4988,-0.11
4989,-0.075
4990,-0.04
4991,-0.085
4992,-0.105
4993,-0.135
4994,-0.21
4995,-0.205
4996,-0.15
4997,-0.105
4998,-0.12
4999,0.025
5000,-0.1
5001,-0.085
5002,-0.01
5003,0
5004,-0.025
5005,-0.035
5006,-0.045
5007,-0.075
5008,-0.125
5009,-0.125
5010,-0.15
5011,-0.1
5012,-0.02
5013,0.005
5014,0.01
5015,0
5016,-0.06
5017,-0.105
5018,-0.11
5019,-0.1
5020,-0.08
5021,-0.075
5022,-0.035
5023,0.01
5024,0.02
5025,-0.025
5026,-0.06
5027,-0.175
5028,-0.14
5029,-0.1
5030,-0.1
5031,-0.045
5032,-0.015
5033,-0.005
5034,-0.01
5035,-0.01
5036,-0.085
5037,-0.105
5038,-0.12
5039,-0.15
5040,-0.13
5041,-0.045
5042,-0.01
5043,-0.01
5044,-0.035
5045,-0.08
5046,-0.085
5047,-0.08
5048,-0.12
5049,-0.14
5050,-0.11
5051,-0.04
5052,0
5053,0
5054,-0.01
5055,-0.04
5056,-0.08
5057,-0.12
5058,-0.14
5059,-0.11
5060,-0.11
5061,-0.065
5062,-0.045
5063,-0.055
5064,-0.035
5065,-0.03
5066,-0.095
5067,-0.11
5068,-0.125
5069,-0.13
5070,-0.125
5071,-0.05
5072,-0.015
5073,0.005
5074,-0.01
5075,-0.05
5076,-0.1
5077,-0.09
5078,-0.12
5079,-0.12
5080,-0.085
5081,-0.015
5082,0.045
5083,0.055
5084,0
5085,-0.035
5086,-0.06
5087,-0.075
5088,-0.145
5089,-0.075
5090,-0.05
5091,0.015
5092,0.035
5093,0.025
5094,0.015
5095,0.015
5096,-0.055
5097,-0.07
5098,-0.035
5099,-0.055
5100,-0.02
5101,0.06
5102,0.075
5103,0.06
5104,-0.01
5105,-0.015
5106,-0.06
5107,-0.08
5108,-0.115
5109,-0.115
5110,-0.065
5111,0.015
5112,0.015
5113,0.025
5114,-0.025
5115,-0.05
5116,-0.095
5117,-0.15
5118,-0.14
5119,-0.12
5120,-0.075
5121,-0.06
5122,-0.065
5123,-0.01
5124,-0.02
5125,-0.065
5126,-0.12
5127,-0.155
5128,-0.17
5129,-0.15
5130,-0.115
5131,-0.05
5132,-0.05
5133,-0.04
5134,-0.04
5135,-0.07
5136,-0.125
5137,-0.14
5138,-0.135
5139,-0.125
5140,-0.11
5141,-0.08
5142,-0.02
5143,-0.01
5144,-0.045
5145,-0.065
5146,-0.135
5147,-0.185
5148,-0.185
5149,-0.18
5150,-0.095
5151,-0.07
5152,-0.055
5153,-0.05
5154,-0.05
5155,-0.095
5156,-0.15
5157,-0.165
5158,-0.165
5159,-0.165
5160,-0.135
5161,-0.155
5162,-0.085
5163,-0.065
5164,-0.03
5165,-0.005
5166,-0.02
5167,0.02
5168,0.1
5169,0.2
5170,0.3
5171,0.43
5172,0.565
5173,0.675
5174,0.75
5175,0.695
5176,0.645
5177,0.585
5178,0.52
5179,0.415
5180,0.335
5181,0.315
5182,0.19
5183,0.06
5184,-0.125
5185,-0.26
5186,-0.28
5187,-0.25
5188,-0.2
5189,-0.185
5190,-0.145
5191,-0.05
5192,-0.02
5193,-0.03
5194,-0.03
5195,-0.045
5196,-0.09
5197,-0.125
5198,-0.105
5199,-0.12
5200,-0.05
5201,-0.03
5202,-0.02
5203,-0.025
5204,-0.005
5205,-0.08
5206,-0.065
5207,-0.09
5208,-0.07
5209,-0.105
5210,-0.08
5211,-0.025
5212,-0.005
5213,-0.035
5214,-0.035
5215,-0.09
5216,-0.105
5217,-0.145
5218,-0.11
5219,-0.065
5220,-0.005
5221,0.03
5222,-0.015
5223,0.015
5224,0.01
5225,-0.06
5226,-0.075
5227,-0.095
5228,-0.08
5229,-0.075
5230,0.045
5231,0.06
5232,0.055
5233,-0.005
5234,-0.015
5235,-0.035
5236,-0.06
5237,-0.06
5238,-0.05
5239,-0.015
5240,-0.015
5241,0.025
5242,0.045
5243,0.04
5244,0.02
5245,-0.015
5246,-0.03
5247,0.01
5248,-0.05
5249,-0.095
5250,0.01
5251,0.08
5252,0.095
5253,0.08
5254,0.06
5255,0
5256,-0.01
5257,-0.015
5258,-0.005
5259,0.04
5260,0.09
5261,0.11
5262,0.14
5263,0.105
5264,0.1
5265,0.095
5266,0.06
5267,0.055
5268,0.075
5269,0.095
5270,0.16
5271,0.225
5272,0.225
5273,0.215
5274,0.215
5275,0.14
5276,0.115
5277,0.12
5278,0.125
5279,0.18
5280,0.245
5281,0.25
5282,0.28
5283,0.255
5284,0.215
5285,0.18
5286,0.16
5287,0.165
5288,0.19
5289,0.235
5290,0.285
5291,0.305
5292,0.27
5293,0.255
5294,0.205
5295,0.175
5296,0.17
5297,0.115
5298,0.145
5299,0.195
5300,0.2
5301,0.22
5302,0.215
5303,0.145
5304,0.12
5305,0.09
5306,0.085
5307,0.04
5308,0.03
5309,0.045
5310,0.085
5311,0.09
5312,0.14
5313,0.105
5314,0.03
5315,-0.025
5316,-0.055
5317,-0.035
5318,-0.035
5319,-0.005
5320,0.03
5321,0.035
5322,0.02
5323,0
5324,-0.05
5325,-0.08
5326,-0.115
5327,-0.1
5328,-0.115
5329,-0.05
5330,-0.01
5331,-0.01
5332,-0.005
5333,-0.015
5334,-0.055
5335,-0.095
5336,-0.12
5337,-0.115
5338,-0.09
5339,-0.025
5340,-0.005
5341,-0.02
5342,-0.03
5343,-0.025
5344,-0.07
5345,-0.105
5346,-0.125
5347,-0.125
5348,-0.1
5349,0
5350,0.02
5351,-0.05
5352,-0.065
5353,-0.01
5354,-0.07
5355,-0.09
5356,-0.125
5357,-0.12
5358,-0.085
5359,-0.03
5360,-0.005
5361,0.01
5362,-0.015
5363,-0.025
5364,-0.07
5365,-0.085
5366,-0.105
5367,-0.09
5368,-0.1
5369,-0.04
5370,0.02
5371,0.03
5372,0.015
5373,-0.03
5374,-0.115
5375,-0.115
5376,-0.115
5377,-0.07
5378,-0.065
5379,-0.01
5380,0.015
5381,-0.005
5382,0.025
5383,-0.03
5384,-0.12
5385,-0.135
5386,-0.11
5387,-0.07
5388,-0.075
5389,-0.01
5390,0.005
5391,0
5392,0.01
5393,0
5394,-0.055
5395,-0.09
5396,-0.08
5397,-0.08
5398,-0.105
5399,-0.01
5400,-0.025
5401,-0.01
5402,-0.015
5403,-0.015
5404,-0.095
5405,-0.115
5406,-0.11
5407,-0.09
5408,-0.065
5409,-0.015
5410,-0.005
5411,-0.015
5412,-0.02
5413,-0.035
5414,-0.085
5415,-0.12
5416,-0.105
5417,-0.11
5418,-0.095
5419,-0.035
5420,-0.025
5421,-0.01
5422,-0.02
5423,-0.06
5424,-0.1
5425,-0.14
5426,-0.145
5427,-0.08
5428,-0.08
5429,-0.035
5430,-0.015
5431,0
5432,-0.02
5433,-0.075
5434,-0.115
5435,-0.11
5436,-0.12
5437,-0.095
5438,-0.065
5439,-0.005
5440,0.005
5441,-0.005
5442,-0.06
5443,-0.08
5444,-0.1
5445,-0.095
5446,-0.135
5447,-0.13
5448,-0.085
5449,-0.025
5450,-0.015
5451,0
5452,-0.03
5453,-0.09
5454,-0.15
5455,-0.135
5456,-0.115
5457,-0.115
5458,-0.1
5459,-0.03
5460,-0.005
5461,-0.035
5462,-0.05
5463,-0.06
5464,-0.075
5465,-0.135
5466,-0.145
5467,-0.11
5468,-0.075
5469,-0.03
5470,-0.02
5471,-0.07
5472,-0.055
5473,-0.09
5474,-0.12
5475,-0.135
5476,-0.115
5477,-0.115
5478,-0.05
5479,-0.115
5480,-0.03
5481,-0.005
5482,-0.035
5483,-0.095
5484,-0.125
5485,-0.135
5486,-0.115
5487,-0.105
5488,-0.065
5489,-0.015
5490,-0.03
5491,-0.06
5492,-0.07
5493,-0.095
5494,-0.095
5495,-0.13
5496,-0.115
5497,-0.075
5498,-0.015
5499,-0.01
5500,-0.005
5501,0.005
5502,0
5503,-0.065
5504,-0.11
5505,-0.13
5506,-0.085
5507,-0.075
5508,-0.005
5509,0.04
5510,0.055
5511,0.005
5512,-0.065
5513,-0.055
5514,-0.105
5515,-0.105
5516,-0.065
5517,-0.05
5518,0.01
5519,0.025
5520,0.045
5521,0.045
5522,0.02
5523,-0.035
5524,-0.05
5525,-0.065
5526,-0.05
5527,-0.06
5528,-0.005
5529,0.02
5530,0.005
5531,-0.015
5532,-0.01
5533,-0.07
5534,-0.1
5535,-0.185
5536,-0.125
5537,-0.1
5538,-0.04
5539,-0.005
5540,-0.02
5541,-0.03
5542,-0.035
5543,-0.105
5544,-0.12
5545,-0.13
5546,-0.165
5547,-0.165
5548,-0.065
5549,-0.015
5550,-0.005
5551,-0.055
5552,-0.05
5553,-0.135
5554,-0.15
5555,-0.135
5556,-0.14
5557,-0.12
5558,-0.03
5559,-0.03
5560,-0.065
5561,-0.085
5562,-0.065
5563,-0.14
5564,-0.145
5565,-0.155
5566,-0.165
5567,-0.1
5568,-0.065
5569,-0.065
5570,-0.05
5571,-0.045
5572,-0.065
5573,-0.135
5574,-0.2
5575,-0.19
5576,-0.15
5577,-0.155
5578,-0.07
5579,-0.07
5580,-0.07
5581,-0.085
5582,-0.145
5583,-0.15
5584,-0.13
5585,-0.08
5586,0.005
5587,0.065
5588,0.2
5589,0.305
5590,0.35
5591,0.445
5592,0.565
5593,0.645
5594,0.68
5595,0.665
5596,0.645
5597,0.615
5598,0.595
5599,0.505
5600,0.425
5601,0.3
5602,0.12
5603,-0.06
5604,-0.175
5605,-0.235
5606,-0.245
5607,-0.19
5608,-0.165
5609,-0.1
5610,-0.065
5611,-0.07
5612,-0.09
5613,-0.075
5614,-0.105
5615,-0.115
5616,-0.12
5617,-0.085
5618,-0.06
5619,-0.005
5620,-0.035
5621,-0.04
5622,-0.06
5623,-0.07
5624,-0.08
5625,-0.12
5626,-0.16
5627,-0.085
5628,0.005
5629,-0.025
5630,0.01
5631,0
5632,-0.05
5633,-0.095
5634,-0.105
5635,-0.105
5636,-0.095
5637,-0.02
5638,0.005
5639,0.02
5640,0.02
5641,0.01
5642,-0.045
5643,-0.085
5644,-0.08
5645,-0.09
5646,-0.12
5647,-0.03
5648,-0.005
5649,0.025
5650,-0.035
5651,0
5652,-0.035
5653,-0.085
5654,-0.095
5655,-0.075
5656,-0.045
5657,0.015
5658,0.035
5659,0.06
5660,0.055
5661,0.005
5662,-0.05
5663,-0.055
5664,-0.03
5665,-0.03
5666,-0.03
5667,0.07
5668,0.065
5669,0.08
5670,0.065
5671,0.07
5672,0.015
5673,-0.005
5674,-0.05
5675,-0.05
5676,0.01
5677,0.095
5678,0.075
5679,0.105
5680,0.085
5681,0.105
5682,0.03
5683,0.015
5684,0.025
5685,0.03
5686,0.07
5687,0.145
5688,0.16
5689,0.175
5690,0.145
5691,0.155
5692,0.13
5693,0.085
5694,0.075
5695,0.115
5696,0.165
5697,0.235
5698,0.24
5699,0.265
5700,0.24
5701,0.21
5702,0.185
5703,0.16
5704,0.155
5705,0.2
5706,0.215
5707,0.26
5708,0.29
5709,0.29
5710,0.295
5711,0.265
5712,0.175
5713,0.175
5714,0.165
5715,0.175
5716,0.18
5717,0.235
5718,0.255
5719,0.245
5720,0.215
5721,0.185
5722,0.1
5723,0.09
5724,0.06
5725,0.06
5726,0.075
5727,0.13
5728,0.13
5729,0.115
5730,0.08
5731,0.055
5732,-0.02
5733,-0.04
5734,-0.035
5735,-0.035
5736,-0.01
5737,0.04
5738,0.05
5739,0.035
5740,0.01
5741,-0.005
5742,-0.075
5743,-0.1
5744,-0.1
5745,-0.095
5746,-0.065
5747,-0.01
5748,0
5749,-0.005
5750,-0.015
5751,-0.05
5752,-0.1
5753,-0.12
5754,-0.11
5755,-0.11
5756,-0.08
5757,-0.04
5758,-0.08
5759,-0.045
5760,-0.04
5761,-0.04
5762,-0.075
5763,-0.13
5764,-0.14
5765,-0.11
5766,-0.07
5767,-0.045
5768,-0.025
5769,-0.01
5770,-0.015
5771,-0.055
5772,-0.08
5773,-0.085
5774,-0.14
5775,-0.115
5776,-0.065
5777,-0.015
5778,0
5779,0.02
5780,-0.02
5781,-0.13
5782,-0.16
5783,-0.125
5784,-0.115
5785,-0.11
5786,-0.025
5787,0.01
5788,0.01
5789,0.01
5790,0
5791,-0.055
5792,-0.085
5793,-0.105
5794,-0.1
5795,-0.095
5796,-0.04
5797,0.02
5798,-0.035
5799,-0.025
5800,-0.005
5801,-0.06
5802,-0.1
5803,-0.11
5804,-0.085
5805,-0.1
5806,-0.045
5807,-0.01
5808,0.02
5809,0.01
5810,-0.005
5811,-0.06
5812,-0.09
5813,-0.095
5814,-0.085
5815,-0.05
5816,-0.01
5817,-0.115
5818,-0.055
5819,0.025
5820,0.005
5821,-0.07
5822,-0.125
5823,-0.115
5824,-0.1
5825,-0.11
5826,-0.045
5827,-0.015
5828,0.025
5829,0.005
5830,-0.03
5831,-0.075
5832,-0.11
5833,-0.125
5834,-0.115
5835,-0.105
5836,-0.06
5837,0
5838,0
5839,-0.005
5840,-0.035
5841,-0.115
5842,-0.13
5843,-0.135
5844,-0.13
5845,-0.12
5846,-0.03
5847,-0.02
5848,-0.02
5849,-0.03
5850,-0.04
5851,-0.12
5852,-0.13
5853,-0.125
5854,-0.13
5855,-0.09
5856,-0.045
5857,-0.025
5858,-0.005
5859,-0.015
5860,-0.06
5861,-0.13
5862,-0.135
5863,-0.125
5864,-0.13
5865,-0.105
5866,-0.025
5867,-0.035
5868,-0.06
5869,-0.045
5870,-0.045
5871,-0.105
5872,-0.12
5873,-0.135
5874,-0.12
5875,-0.125
5876,-0.055
5877,-0.035
5878,-0.02
5879,-0.06
5880,-0.07
5881,-0.1
5882,-0.145
5883,-0.125
5884,-0.12
5885,-0.1
5886,-0.02
5887,-0.035
5888,-0.045
5889,-0.05
5890,-0.1
5891,-0.15
5892,-0.12
5893,-0.125
5894,-0.165
5895,-0.105
5896,-0.045
5897,-0.025
5898,-0.015
5899,-0.01
5900,-0.03
5901,-0.09
5902,-0.115
5903,-0.145
5904,-0.11
5905,-0.075
5906,0.005
5907,0.03
5908,0
5909,-0.015
5910,-0.04
5911,-0.09
5912,-0.095
5913,-0.11
5914,-0.1
5915,0.02
5916,0.025
5917,-0.025
5918,-0.005
5919,-0.01
5920,-0.045
5921,-0.085
5922,-0.11
5923,-0.085
5924,-0.06
5925,-0.01
5926,0.01
5927,0.05
5928,0.04
5929,0.015
5930,-0.025
5931,-0.04
5932,-0.075
5933,-0.085
5934,-0.095
5935,-0.04
5936,-0.015
5937,-0.005
5938,-0.005
5939,-0.02
5940,-0.08
5941,-0.12
5942,-0.14
5943,-0.14
5944,-0.135
5945,-0.08
5946,-0.035
5947,-0.03
5948,-0.04
5949,-0.045
5950,-0.115
5951,-0.14
5952,-0.145
5953,-0.125
5954,-0.095
5955,-0.095
5956,-0.045
5957,-0.075
5958,-0.08
5959,-0.07
5960,-0.15
5961,-0.155
5962,-0.165
5963,-0.125
5964,-0.125
5965,-0.065
5966,-0.07
5967,-0.04
5968,-0.04
5969,-0.05
5970,-0.13
5971,-0.165
5972,-0.135
5973,-0.115
5974,-0.165
5975,-0.12
5976,-0.06
5977,-0.015
5978,-0.03
5979,-0.06
5980,-0.14
5981,-0.155
5982,-0.19
5983,-0.165
5984,-0.17
5985,-0.1
5986,-0.095
5987,-0.095
5988,-0.07
5989,-0.05
5990,-0.05
5991,-0.065
5992,-0.09
5993,0.045
5994,0.165
5995,0.275
5996,0.39
5997,0.53
5998,0.655
5999,0.73
6000,0.685
6001,0.665
6002,0.64
6003,0.575
6004,0.47
6005,0.44
6006,0.36
6007,0.24
6008,0.085
6009,-0.045
6010,-0.19
6011,-0.265
6012,-0.275
6013,-0.24
6014,-0.18
6015,-0.095
6016,-0.06
6017,-0.06
6018,-0.01
6019,-0.025
6020,-0.09
6021,-0.105
6022,-0.12
6023,-0.12
6024,-0.09
6025,-0.03
6026,-0.02
6027,0.005
6028,-0.05
6029,-0.095
6030,-0.095
6031,-0.14
6032,-0.115
6033,-0.1
6034,-0.08
6035,-0.005
6036,0.015
6037,0.02
6038,-0.03
6039,-0.04
6040,-0.065
6041,-0.13
6042,-0.13
6043,-0.09
6044,-0.08
6045,-0.005
6046,0.04
6047,0.025
6048,0.015
6049,-0.025
6050,-0.085
6051,-0.08
6052,-0.08
6053,-0.06
6054,-0.035
6055,0.02
6056,0.05
6057,0.04
6058,0.02
6059,-0.01
6060,-0.065
6061,-0.06
6062,-0.06
6063,-0.085
6064,-0.045
6065,0.025
6066,0.06
6067,0.04
6068,0
6069,-0.005
6070,-0.025
6071,-0.05
6072,-0.04
6073,-0.025
6074,0.05
6075,0.075
6076,0.09
6077,0.095
6078,0.065
6079,0.035
6080,0.01
6081,0.005
6082,0.01
6083,0.01
6084,0.055
6085,0.085
6086,0.12
6087,0.15
6088,0.13
6089,0.055
6090,0.01
6091,0.035
6092,0.04
6093,0.065
6094,0.135
6095,0.18
6096,0.21
6097,0.22
6098,0.2
6099,0.125
6100,0.095
6101,0.15
6102,0.165
6103,0.18
6104,0.215
6105,0.225
6106,0.23
6107,0.25
6108,0.28
6109,0.215
6110,0.165
6111,0.175
6112,0.19
6113,0.21
6114,0.265
6115,0.275
6116,0.25
6117,0.245
6118,0.26
6119,0.22
6120,0.185
6121,0.155
6122,0.135
6123,0.155
6124,0.2
6125,0.195
6126,0.205
6127,0.19
6128,0.18
6129,0.1
6130,0.075
6131,0.04
6132,0.025
6133,0.01
6134,0.08
6135,0.115
6136,0.115
6137,0.09
6138,0.035
6139,-0.015
6140,-0.025
6141,-0.055
6142,-0.055
6143,-0.045
6144,0
6145,0.025
6146,0.035
6147,0.02
6148,-0.015
6149,-0.065
6150,-0.07
6151,-0.085
6152,-0.11
6153,-0.085
6154,-0.005
6155,0.02
6156,0.02
6157,-0.03
6158,-0.05
6159,-0.1
6160,-0.11
6161,-0.11
6162,-0.085
6163,-0.085
6164,-0.04
6165,0.01
6166,0.02
6167,-0.035
6168,-0.06
6169,-0.095
6170,-0.11
6171,-0.105
6172,-0.105
6173,-0.1
6174,-0.03
6175,0.01
6176,0.055
6177,0.02
6178,-0.055
6179,-0.17
6180,-0.11
6181,-0.08
6182,-0.07
6183,-0.09
6184,-0.035
6185,0.025
6186,0.03
6187,0.01
6188,0.01
6189,-0.065
6190,-0.115
6191,-0.145
6192,-0.105
6193,-0.03
6194,0.02
6195,0.03
6196,0.05
6197,0.04
6198,0.01
6199,-0.02
6200,-0.13
6201,-0.11
6202,-0.09
6203,-0.045
6204,-0.005
6205,0.01
6206,0.01
6207,0.02
6208,-0.02
6209,-0.065
6210,-0.09
6211,-0.11
6212,-0.135
6213,-0.11
6214,0.015
6215,0.05
6216,0.01
6217,0.015
6218,-0.045
6219,-0.08
6220,-0.09
6221,-0.09
6222,-0.07
6223,-0.03
6224,-0.01
6225,-0.025
6226,0.01
6227,0.01
6228,-0.04
6229,-0.06
6230,-0.075
6231,-0.09
6232,-0.125
6233,-0.06
6234,-0.015
6235,-0.01
6236,-0.015
6237,-0.01
6238,-0.045
6239,-0.09
6240,-0.11
6241,-0.075
6242,-0.085
6243,-0.055
6244,-0.005
6245,0.025
6246,-0.045
6247,-0.03
6248,-0.05
6249,-0.115
6250,-0.135
6251,-0.105
6252,-0.09
6253,-0.035
6254,-0.005
6255,-0.01
6256,-0.04
6257,-0.03
6258,-0.07
6259,-0.14
6260,-0.14
6261,-0.1
6262,-0.105
6263,-0.05
6264,-0.045
6265,0.01
6266,0
6267,-0.025
6268,-0.08
6269,-0.1
6270,-0.105
6271,-0.125
6272,-0.11
6273,-0.05
6274,-0.025
6275,0.01
6276,0.03
6277,0.005
6278,-0.065
6279,-0.075
6280,-0.1
6281,-0.12
6282,-0.095
6283,-0.02
6284,0.01
6285,0.02
6286,0.08
6287,-0.03
6288,-0.055
6289,-0.085
6290,-0.09
6291,-0.115
6292,-0.09
6293,-0.005
6294,0.06
6295,0.075
6296,0.045
6297,0.05
6298,-0.02
6299,-0.06
6300,-0.08
6301,-0.025
6302,-0.025
6303,0.04
6304,0.045
6305,0.06
6306,0.04
6307,0.005
6308,-0.05
6309,-0.08
6310,-0.105
6311,-0.105
6312,-0.075
6313,0.015
6314,0.005
6315,-0.025
6316,-0.05
6317,-0.03
6318,-0.1
6319,-0.145
6320,-0.12
6321,-0.11
6322,-0.105
6323,-0.04
6324,-0.03
6325,-0.005
6326,-0.02
6327,-0.045
6328,-0.11
6329,-0.14
6330,-0.14
6331,-0.11
6332,-0.12
6333,-0.055
6334,-0.03
6335,-0.04
6336,-0.05
6337,-0.045
6338,-0.115
6339,-0.125
6340,-0.1
6341,-0.14
6342,-0.09
6343,-0.025
6344,0.01
6345,0
6346,-0.08
6347,-0.11
6348,-0.18
6349,-0.19
6350,-0.19
6351,-0.13
6352,-0.09
6353,-0.015
6354,0
6355,-0.01
6356,-0.045
6357,-0.1
6358,-0.14
6359,-0.145
6360,-0.165
6361,-0.16
6362,-0.105
6363,-0.09
6364,-0.07
6365,-0.05
6366,-0.015
6367,0.025
6368,0.045
6369,0.045
6370,0.145
6371,0.21
6372,0.305
6373,0.49
6374,0.64
6375,0.69
6376,0.65
6377,0.58
6378,0.455
6379,0.395
6380,0.325
6381,0.3
6382,0.28
6383,0.18
6384,0.04
6385,-0.085
6386,-0.155
6387,-0.22
6388,-0.235
6389,-0.25
6390,-0.22
6391,-0.175
6392,-0.085
6393,-0.04
6394,0.01
6395,-0.025
6396,-0.06
6397,-0.095
6398,-0.095
6399,-0.135
6400,-0.11
6401,-0.085
6402,-0.05
6403,0.005
6404,-0.02
6405,-0.01
6406,-0.01
6407,-0.07
6408,-0.1
6409,-0.08
6410,-0.09
6411,-0.17
6412,-0.065
6413,0.015
6414,-0.01
6415,0.025
6416,0.04
6417,-0.01
6418,-0.115
6419,-0.09
6420,-0.05
6421,-0.04
6422,-0.015
6423,0.005
6424,0.015
6425,0.01
6426,0.03
6427,-0.035
6428,-0.055
6429,-0.095
6430,-0.09
6431,-0.065
6432,0.02
6433,0.035
6434,0.005
6435,0.02
6436,0.06
6437,-0.03
6438,-0.03
6439,-0.045
6440,-0.03
6441,-0.01
6442,0.035
6443,-0.055
6444,0.005
6445,0.055
6446,0.02
6447,-0.005
6448,-0.045
6449,-0.045
6450,0.005
6451,-0.02
6452,0.06
6453,0.08
6454,0.115
6455,0.105
6456,0.095
6457,0.04
6458,0.015
6459,0
6460,0.005
6461,-0.005
6462,0.075
6463,0.09
6464,0.105
6465,0.125
6466,0.125
6467,0.08
6468,0.055
6469,-0.005
6470,0.08
6471,0.125
6472,0.145
6473,0.17
6474,0.17
6475,0.17
6476,0.19
6477,0.18
6478,0.18
6479,0.035
6480,0.085
6481,0.18
6482,0.235
6483,0.25
6484,0.26
6485,0.21
6486,0.225
6487,0.205
6488,0.165
6489,0.175
6490,0.16
6491,0.17
6492,0.23
6493,0.23
6494,0.255
6495,0.245
6496,0.16
6497,0.16
6498,0.12
6499,0.14
6500,0.145
6501,0.12
6502,0.19
6503,0.1
6504,0.13
6505,0.12
6506,0.09
6507,0.015
6508,0.015
6509,0.025
6510,0.035
6511,0.03
6512,0.035
6513,0.105
6514,0.085
6515,0.08
6516,0.01
6517,-0.045
6518,-0.05
6519,-0.065
6520,-0.065
6521,-0.015
6522,0.04
6523,0.055
6524,0
6525,-0.01
6526,-0.085
6527,-0.07
6528,-0.125
6529,-0.09
6530,-0.11
6531,-0.05
6532,-0.03
6533,-0.015
6534,-0.01
6535,0.01
6536,-0.075
6537,-0.15
6538,-0.105
6539,-0.12
6540,-0.135
6541,-0.09
6542,-0.01
6543,0.01
6544,0.01
6545,0
6546,-0.045
6547,-0.09
6548,-0.11
6549,-0.1
6550,-0.105
6551,-0.03
6552,0.015
6553,0.03
6554,-0.005
6555,-0.03
6556,-0.1
6557,-0.105
6558,-0.09
6559,-0.18
6560,-0.125
6561,-0.01
6562,0.015
6563,0.015
6564,0.01
6565,-0.02
6566,-0.07
6567,-0.09
6568,-0.065
6569,-0.145
6570,-0.115
6571,-0.015
6572,-0.05
6573,0.005
6574,0.015
6575,-0.01
6576,-0.065
6577,-0.09
6578,-0.11
6579,-0.065
6580,-0.075
6581,-0.03
6582,-0.01
6583,0.01
6584,-0.005
6585,0.01
6586,-0.035
6587,-0.085
6588,-0.115
6589,-0.095
6590,-0.135
6591,-0.075
6592,0
6593,0.015
6594,0.01
6595,-0.005
6596,-0.07
6597,-0.075
6598,-0.09
6599,-0.095
6600,-0.075
6601,-0.015
6602,0.045
6603,0.02
6604,-0.065
6605,-0.05
6606,-0.105
6607,-0.11
6608,-0.125
6609,-0.115
6610,-0.1
6611,0.01
6612,0.01
6613,0.01
6614,-0.035
6615,-0.015
6616,-0.1
6617,-0.145
6618,-0.14
6619,-0.15
6620,-0.14
6621,-0.01
6622,-0.005
6623,0.025
6624,0.015
6625,-0.025
6626,-0.14
6627,-0.12
6628,-0.09
6629,-0.11
6630,-0.085
6631,-0.05
6632,-0.01
6633,0.03
6634,0.015
6635,0.005
6636,-0.09
6637,-0.14
6638,-0.135
6639,-0.095
6640,-0.11
6641,-0.035
6642,0.02
6643,0.025
6644,-0.02
6645,-0.01
6646,-0.075
6647,-0.08
6648,-0.085
6649,-0.075
6650,-0.065
6651,0.02
6652,-0.02
6653,-0.015
6654,0.02
6655,0.03
6656,-0.015
6657,-0.035
6658,-0.04
6659,-0.045
6660,-0.005
6661,0.04
6662,0.075
6663,0.035
6664,0.035
6665,0.005
6666,-0.06
6667,-0.075
6668,-0.09
6669,-0.09
6670,-0.035
6671,-0.005
6672,0.015
6673,0.01
6674,-0.1
6675,-0.145
6676,-0.09
6677,-0.115
6678,-0.155
6679,-0.145
6680,-0.1
6681,0.005
6682,-0.02
6683,-0.03
6684,-0.03
6685,-0.11
6686,-0.15
6687,-0.15
6688,-0.18
6689,-0.125
6690,-0.075
6691,-0.02
6692,-0.015
6693,-0.015
6694,-0.02
6695,-0.055
6696,-0.14
6697,-0.225
6698,-0.15
6699,-0.11
6700,-0.08
6701,-0.065
6702,-0.055
6703,-0.05
6704,-0.03
6705,-0.115
6706,-0.145
6707,-0.14
6708,-0.13
6709,-0.14
6710,-0.055
6711,-0.08
6712,-0.025
6713,-0.035
6714,-0.125
6715,-0.12
6716,-0.145
6717,-0.15
6718,-0.15
6719,-0.15
6720,-0.105
6721,-0.055
6722,-0.07
6723,-0.115
6724,-0.09
6725,-0.13
6726,-0.075
6727,-0.03
6728,0.03
6729,0.075
6730,0.205
6731,0.295
6732,0.385
6733,0.445
6734,0.525
6735,0.46
6736,0.45
6737,0.41
6738,0.37
6739,0.35
6740,0.34
6741,0.24
6742,0.21
6743,0.085
6744,-0.025
6745,-0.175
6746,-0.225
6747,-0.27
6748,-0.27
6749,-0.235
6750,-0.14
6751,-0.07
6752,-0.035
6753,-0.06
6754,-0.03
6755,-0.11
6756,-0.105
6757,-0.1
6758,-0.085
6759,-0.095
6760,-0.06
6761,-0.03
6762,-0.025
6763,-0.035
6764,-0.005
6765,-0.035
6766,-0.145
6767,-0.155
6768,-0.135
6769,-0.075
6770,-0.02
6771,0.015
6772,-0.015
6773,-0.035
6774,-0.015
6775,-0.08
6776,-0.105
6777,-0.11
6778,-0.11
6779,-0.095
6780,0.025
6781,0.04
6782,0.045
6783,-0.01
6784,-0.005
6785,-0.1
6786,-0.07
6787,-0.085
6788,-0.06
6789,-0.08
6790,-0.005
6791,0.035
6792,0.05
6793,0.01
6794,-0.035
6795,-0.095
6796,-0.08
6797,-0.095
6798,-0.045
6799,-0.035
6800,0.03
6801,0.06
6802,0.025
6803,0.03
6804,0.015
6805,-0.07
6806,-0.085
6807,-0.035
6808,-0.02
6809,-0.02
6810,0.02
6811,0.095
6812,0.11
6813,0.07
6814,0.02
6815,-0.005
6816,-0.015
6817,-0.005
6818,0.005
6819,0.045
6820,0.1
6821,0.085
6822,0.1
6823,0.135
6824,0.075
6825,0
6826,0.025
6827,-0.005
6828,0.05
6829,0.105
6830,0.16
6831,0.175
6832,0.19
6833,0.17
6834,0.15
6835,0.115
6836,0.105
6837,0.08
6838,0.135
6839,0.21
6840,0.245
6841,0.23
6842,0.225
6843,0.22
6844,0.145
6845,0.15
6846,0.17
6847,0.165
6848,0.14
6849,0.21
6850,0.225
6851,0.21
6852,0.185
6853,0.215
6854,0.185
6855,0.15
6856,0.12
6857,0.115
6858,0.125
6859,0.155
6860,0.155
6861,0.145
6862,0.14
6863,0.14
6864,0.1
6865,0.035
6866,0.005
6867,-0.02
6868,0.005
6869,0.08
6870,0.095
6871,0.1
6872,0.075
6873,0.06
6874,-0.02
6875,-0.06
6876,-0.055
6877,-0.075
6878,-0.06
6879,-0.06
6880,-0.01
6881,-0.035
6882,-0.01
6883,0.015
6884,-0.08
6885,-0.11
6886,-0.16
6887,-0.115
6888,-0.11
6889,-0.04
6890,-0.005
6891,-0.015
6892,-0.02
6893,-0.015
6894,-0.075
6895,-0.125
6896,-0.155
6897,-0.155
6898,-0.125
6899,-0.03
6900,-0.03
6901,-0.065
6902,-0.02
6903,0.005
6904,-0.105
6905,-0.115
6906,-0.1
6907,-0.09
6908,-0.1
6909,-0.09
6910,-0.015
6911,-0.04
6912,-0.025
6913,-0.065
6914,-0.11
6915,-0.105
6916,-0.125
6917,-0.12
6918,-0.08
6919,-0.08
6920,-0.05
6921,0.015
6922,0
6923,0
6924,-0.12
6925,-0.13
6926,-0.11
6927,-0.13
6928,-0.115
6929,0.005
6930,-0.005
6931,-0.05
6932,-0.005
6933,-0.005
6934,-0.1
6935,-0.11
6936,-0.1
6937,-0.115
6938,-0.08
6939,0.01
6940,-0.04
6941,0.01
6942,0.025
6943,-0.01
6944,-0.14
6945,-0.145
6946,-0.1
6947,-0.105
6948,-0.105
6949,-0.005
6950,0.015
6951,0.01
6952,-0.04
6953,-0.085
6954,-0.09
6955,-0.11
6956,-0.115
6957,-0.135
6958,-0.095
6959,-0.04
6960,-0.01
6961,-0.04
6962,-0.065
6963,-0.085
6964,-0.12
6965,-0.12
6966,-0.115
6967,-0.085
6968,-0.06
6969,-0.02
6970,-0.005
6971,-0.02
6972,-0.01
6973,-0.055
6974,-0.11
6975,-0.12
6976,-0.12
6977,-0.125
6978,-0.13
6979,-0.05
6980,-0.015
6981,0.005
6982,-0.025
6983,-0.095
6984,-0.135
6985,-0.14
6986,-0.145
6987,-0.12
6988,-0.07
6989,-0.04
6990,0.005
6991,-0.02
6992,0.005
6993,-0.075
6994,-0.17
6995,-0.135
6996,-0.125
6997,-0.075
6998,-0.02
6999,0.015
7000,0
7001,-0.025
7002,0
7003,-0.04
7004,-0.09
7005,-0.1
7006,-0.1
7007,-0.07
7008,-0.045
7009,0.005
7010,0.05
7011,0.04
7012,0.07
7013,-0.055
7014,-0.155
7015,-0.095
7016,-0.075
7017,-0.065
7018,-0.035
7019,0.025
7020,0.03
7021,-0.015
7022,-0.09
7023,-0.115
7024,-0.105
7025,-0.115
7026,-0.145
7027,-0.135
7028,-0.055
7029,-0.035
7030,-0.035
7031,-0.055
7032,-0.06
7033,-0.105
7034,-0.115
7035,-0.145
7036,-0.14
7037,-0.115
7038,-0.04
7039,-0.05
7040,-0.04
7041,-0.045
7042,-0.06
7043,-0.12
7044,-0.135
7045,-0.15
7046,-0.155
7047,-0.17
7048,-0.065
7049,-0.13
7050,-0.055
7051,-0.05
7052,-0.095
7053,-0.175
7054,-0.165
7055,-0.14
7056,-0.155
7057,-0.135
7058,-0.085
7059,-0.085
7060,-0.045
7061,-0.06
7062,-0.07
7063,-0.135
7064,-0.165
7065,-0.18
7066,-0.155
7067,-0.145
7068,-0.095
7069,-0.09
7070,-0.06
7071,-0.05
7072,-0.11
7073,-0.16
7074,-0.17
7075,-0.19
7076,-0.22
7077,-0.18
7078,-0.125
7079,-0.07
7080,-0.005
7081,0.025
7082,0.075
7083,0.035
7084,0.07
7085,0.145
7086,0.19
7087,0.275
7088,0.51
7089,0.63
7090,0.665
7091,0.64
7092,0.605
7093,0.47
7094,0.39
7095,0.31
7096,0.22
7097,0.155
7098,0.06
7099,0.015
7100,-0.12
7101,-0.17
7102,-0.17
7103,-0.215
7104,-0.23
7105,-0.215
7106,-0.175
7107,-0.14
7108,-0.055
7109,-0.03
7110,0
7111,-0.025
7112,-0.1
7113,-0.13
7114,-0.145
7115,-0.125
7116,-0.135
7117,-0.115
7118,-0.09
7119,-0.06
7120,-0.005
7121,-0.005
7122,-0.045
7123,-0.135
7124,-0.15
7125,-0.13
7126,-0.145
7127,-0.085
7128,-0.045
7129,-0.045
7130,-0.015
7131,-0.01
7132,-0.045
7133,-0.095
7134,-0.13
7135,-0.12
7136,-0.105
7137,-0.045
7138,0
7139,-0.01
7140,-0.02
7141,-0.025
7142,-0.05
7143,-0.075
7144,-0.105
7145,-0.12
7146,-0.12
7147,-0.06
7148,-0.03
7149,0.005
7150,-0.01
7151,0.01
7152,-0.025
7153,-0.045
7154,-0.08
7155,-0.095
7156,-0.085
7157,0.005
7158,0.015
7159,0.01
7160,0.015
7161,-0.03
7162,-0.07
7163,-0.06
7164,-0.065
7165,-0.045
7166,-0.05
7167,-0.015
7168,0.05
7169,0.06
7170,0.065
7171,0.05
7172,0
7173,-0.02
7174,-0.03
7175,-0.05
7176,-0.05
7177,0.06
7178,0.1
7179,0.105
7180,0.085
7181,0.1
7182,0.045
7183,0.025
7184,0.025
7185,0.025
7186,0.075
7187,0.135
7188,0.195
7189,0.13
7190,0.165
7191,0.185
7192,0.12
7193,0.09
7194,0.095
7195,0.085
7196,0.12
7197,0.185
7198,0.22
7199,0.245
7200,0.21
7201,0.2
7202,0.16
7203,0.135
7204,0.13
7205,0.115
7206,0.11
7207,0.16
7208,0.18
7209,0.185
7210,0.205
7211,0.17
7212,0.12
7213,0.06
7214,0.065
7215,0.05
7216,0.07
7217,0.14
7218,0.135
7219,0.12
7220,0.08
7221,0.09
7222,-0.015
7223,-0.055
7224,-0.07
7225,-0.02
7226,-0.095
7227,-0.01
7228,0.045
7229,0.05
7230,0.025
7231,-0.04
7232,-0.095
7233,-0.115
7234,-0.12
7235,-0.075
7236,-0.08
7237,-0.035
7238,-0.045
7239,-0.025
7240,-0.08
7241,-0.06
7242,-0.11
7243,-0.13
7244,-0.135
7245,-0.13
7246,-0.15
7247,-0.06
7248,-0.02
7249,-0.02
7250,-0.055
7251,-0.065
7252,-0.12
7253,-0.13
7254,-0.12
7255,-0.155
7256,-0.125
7257,-0.05
7258,-0.01
7259,-0.055
7260,-0.05
7261,-0.08
7262,-0.115
7263,-0.14
7264,-0.175
7265,-0.18
7266,-0.11
7267,-0.045
7268,-0.03
7269,-0.065
7270,-0.095
7271,-0.085
7272,-0.12
7273,-0.145
7274,-0.13
7275,-0.1
7276,-0.095
7277,-0.09
7278,-0.055
7279,-0.03
7280,-0.025
7281,-0.045
7282,-0.13
7283,-0.145
7284,-0.165
7285,-0.12
7286,-0.065
7287,-0.01
7288,-0.015
7289,-0.04
7290,-0.04
7291,-0.06
7292,-0.09
7293,-0.095
7294,-0.1
7295,-0.105
7296,-0.12
7297,-0.03
7298,0
7299,-0.035
7300,-0.02
7301,-0.065
7302,-0.12
7303,-0.135
7304,-0.11
7305,-0.105
7306,-0.055
7307,-0.05
7308,-0.055
7309,-0.035
7310,-0.035
7311,-0.085
7312,-0.12
7313,-0.12
7314,-0.135
7315,-0.145
7316,-0.055
7317,-0.075
7318,-0.075
7319,-0.02
7320,-0.02
7321,-0.12
7322,-0.125
7323,-0.11
7324,-0.1
7325,-0.085
7326,-0.05
7327,-0.005
7328,-0.015
7329,-0.065
7330,-0.05
7331,-0.115
7332,-0.115
7333,-0.145
7334,-0.125
7335,-0.185
7336,-0.135
7337,-0.075
7338,-0.045
7339,-0.025
7340,-0.04
7341,-0.11
7342,-0.11
7343,-0.11
7344,-0.125
7345,-0.15
7346,-0.07
7347,-0.01
7348,-0.07
7349,-0.07
7350,-0.06
7351,-0.145
7352,-0.17
7353,-0.17
7354,-0.135
7355,-0.1
7356,-0.045
7357,0.015
7358,0.02
7359,-0.01
7360,-0.02
7361,-0.085
7362,-0.1
7363,-0.105
7364,-0.08
7365,-0.1
7366,-0.05
7367,-0.02
7368,-0.025
7369,-0.04
7370,-0.025
7371,-0.1
7372,-0.155
7373,-0.17
7374,-0.1
7375,-0.06
7376,0.015
7377,0.05
7378,0.035
7379,-0.005
7380,-0.05
7381,-0.11
7382,-0.07
7383,-0.07
7384,-0.09
7385,-0.06
7386,0.02
7387,0.045
7388,0.015
7389,-0.04
7390,-0.065
7391,-0.13
7392,-0.145
7393,-0.13
7394,-0.125
7395,-0.095
7396,-0.04
7397,-0.035
7398,-0.025
7399,-0.03
7400,-0.055
7401,-0.115
7402,-0.17
7403,-0.165
7404,-0.135
7405,-0.14
7406,-0.105
7407,-0.075
7408,-0.025
7409,-0.035
7410,-0.075
7411,-0.145
7412,-0.135
7413,-0.16
7414,-0.2
7415,-0.17
7416,-0.1
7417,-0.055
7418,-0.075
7419,-0.07
7420,-0.085
7421,-0.175
7422,-0.19
7423,-0.17
7424,-0.13
7425,-0.11
7426,-0.045
7427,-0.07
7428,-0.05
7429,-0.095
7430,-0.1
7431,-0.145
7432,-0.14
7433,-0.175
7434,-0.165
7435,-0.15
7436,-0.075
7437,-0.055
7438,-0.1
7439,-0.09
7440,-0.155
7441,-0.195
7442,-0.19
7443,-0.18
7444,-0.22
7445,-0.185
7446,-0.09
7447,-0.055
7448,-0.015
7449,0.035
7450,0.03
7451,0.07
7452,0.125
7453,0.2
7454,0.24
7455,0.325
7456,0.54
7457,0.695
7458,0.69
7459,0.665
7460,0.56
7461,0.485
7462,0.415
7463,0.325
7464,0.245
7465,0.19
7466,0.12
7467,0.025
7468,-0.095
7469,-0.155
7470,-0.195
7471,-0.2
7472,-0.19
7473,-0.15
7474,-0.115
7475,-0.085
7476,-0.03
7477,-0.045
7478,-0.02
7479,-0.01
7480,-0.09
7481,-0.11
7482,-0.15
7483,-0.165
7484,-0.13
7485,-0.065
7486,-0.05
7487,-0.035
7488,-0.03
7489,-0.02
7490,-0.085
7491,-0.11
7492,-0.105
7493,-0.11
7494,-0.065
7495,-0.035
7496,-0.04
7497,-0.015
7498,-0.005
7499,-0.03
7500,-0.07
7501,-0.11
7502,-0.115
7503,-0.095
7504,-0.07
7505,-0.03
7506,0.02
7507,0.015
7508,-0.01
7509,0.01
7510,-0.035
7511,-0.045
7512,-0.09
7513,-0.115
7514,-0.075
7515,-0.015
7516,0.025
7517,-0.025
7518,-0.015
7519,-0.005
7520,-0.06
7521,-0.065
7522,-0.07
7523,-0.045
7524,-0.045
7525,0.005
7526,0.025
7527,0.065
7528,0.055
7529,0.05
7530,-0.035
7531,-0.04
7532,-0.055
7533,-0.025
7534,0.035
7535,-0.005
7536,0.065
7537,0.05
7538,0.04
7539,0.04
7540,-0.01
7541,-0.01
7542,-0.005
7543,0.035
7544,0.065
7545,0.125
7546,0.135
7547,0.135
7548,0.135
7549,0.12
7550,0.04
7551,0.03
7552,0.03
7553,0.065
7554,0.13
7555,0.175
7556,0.2
7557,0.205
7558,0.2
7559,0.18
7560,0.18
7561,0.135
7562,0.095
7563,0.09
7564,0.21
7565,0.26
7566,0.27
7567,0.275
7568,0.26
7569,0.23
7570,0.175
7571,0.125
7572,0.145
7573,0.17
7574,0.19
7575,0.225
7576,0.265
7577,0.255
7578,0.255
7579,0.19
7580,0.15
7581,0.12
7582,0.11
7583,0.11
7584,0.115
7585,0.125
7586,0.16
7587,0.145
7588,0.11
7589,0.045
7590,0.015
7591,0.04
7592,-0.01
7593,-0.09
7594,0.035
7595,0.08
7596,0.1
7597,0.07
7598,0.065
7599,0.02
7600,-0.02
7601,-0.08
7602,-0.08
7603,-0.08
7604,-0.01
7605,0.03
7606,0.005
7607,-0.005
7608,0
7609,-0.045
7610,-0.09
7611,-0.105
7612,-0.08
7613,-0.09
7614,0
7615,0
7616,0.03
7617,0.005
7618,-0.045
7619,-0.055
7620,-0.11
7621,-0.115
7622,-0.095
7623,-0.095
7624,-0.02
7625,0
7626,0.01
7627,0.035
7628,0.035
7629,-0.105
7630,-0.115
7631,-0.085
7632,-0.08
7633,-0.085
7634,-0.045
7635,-0.02
7636,0.01
7637,0.015
7638,-0.01
7639,-0.05
7640,-0.065
7641,-0.085
7642,-0.065
7643,-0.05
7644,0.01
7645,0
7646,0.025
7647,0.015
7648,0.01
7649,-0.045
7650,-0.07
7651,-0.1
7652,-0.085
7653,-0.075
7654,-0.015
7655,0.005
7656,0.03
7657,0.03
7658,0.025
7659,-0.08
7660,-0.09
7661,-0.075
7662,-0.065
7663,-0.05
7664,0.03
7665,0.045
7666,0.06
7667,0.02
7668,0.02
7669,-0.01
7670,-0.09
7671,-0.105
7672,-0.075
7673,-0.065
7674,0.02
7675,0.04
7676,0.03
7677,-0.005
7678,0.015
7679,-0.08
7680,-0.085
7681,-0.075
7682,-0.03
7683,-0.055
7684,0.035
7685,0.045
7686,0.035
7687,0.02
7688,0.015
7689,-0.025
7690,-0.04
7691,-0.09
7692,-0.125
7693,-0.07
7694,0.02
7695,0.045
7696,-0.015
7697,-0.01
7698,-0.015
7699,-0.05
7700,-0.06
7701,-0.1
7702,-0.055
7703,-0.015
7704,0.01
7705,-0.01
7706,-0.03
7707,0
7708,0
7709,-0.07
7710,-0.09
7711,-0.095
7712,-0.08
7713,-0.04
7714,0.02
7715,0.035
7716,0.045
7717,0.015
7718,-0.025
7719,-0.08
7720,-0.06
7721,-0.115
7722,-0.075
7723,-0.02
7724,0.045
7725,0.045
7726,0.015
7727,-0.01
7728,-0.02
7729,-0.06
7730,-0.075
7731,-0.07
7732,-0.13
7733,-0.04
7734,-0.015
7735,0.005
7736,0.04
7737,-0.005
7738,-0.03
7739,-0.045
7740,-0.06
7741,-0.09
7742,-0.055
7743,-0.01
7744,0.005
7745,0.02
7746,-0.005
7747,-0.02
7748,-0.06
7749,-0.08
7750,-0.055
7751,-0.08
7752,-0.07
7753,-0.005
7754,-0.005
7755,0.005
7756,0.055
7757,0.01
7758,-0.03
7759,-0.04
7760,-0.055
7761,-0.035
7762,-0.045
7763,0.03
7764,0.055
7765,0.06
7766,0.03
7767,0.04
7768,-0.015
7769,-0.065
7770,-0.085
7771,-0.09
7772,-0.045
7773,0.07
7774,0.095
7775,0.09
7776,0.095
7777,0.1
7778,0.05
7779,0.005
7780,-0.065
7781,-0.07
7782,-0.005
7783,0.025
7784,0.08
7785,0.095
7786,0.065
7787,0.055
7788,-0.025
7789,-0.085
7790,-0.065
7791,-0.025
7792,-0.02
7793,0.005
7794,0.01
7795,0.035
7796,0.04
7797,0.005
7798,-0.07
7799,-0.095
7800,-0.09
7801,-0.07
7802,-0.06
7803,0
7804,0.025
7805,0.025
7806,-0.065
7807,-0.07
7808,-0.045
7809,-0.055
7810,-0.075
7811,-0.075
7812,-0.07
7813,0.005
7814,0.015
7815,0.035
7816,0.005
7817,-0.015
7818,-0.095
7819,-0.095
7820,-0.085
7821,-0.11
7822,-0.1
7823,-0.07
7824,0.005
7825,0.02
7826,0.03
7827,0
7828,-0.075
7829,-0.1
7830,-0.085
7831,-0.115
7832,-0.06
7833,0
7834,0
7835,-0.01
7836,-0.005
7837,-0.03
7838,-0.09
7839,-0.105
7840,-0.115
7841,-0.12
7842,-0.13
7843,-0.045
7844,-0.005
7845,-0.015
7846,-0.035
7847,-0.05
7848,-0.07
7849,-0.04
7850,-0.005
7851,0.105
7852,0.19
7853,0.31
7854,0.375
7855,0.465
7856,0.51
7857,0.62
7858,0.67
7859,0.69
7860,0.69
7861,0.615
7862,0.565
7863,0.515
7864,0.44
7865,0.385
7866,0.285
7867,0.145
7868,-0.065
7869,-0.135
7870,-0.175
7871,-0.185
7872,-0.085
7873,0.005
7874,0.03
7875,0.025
7876,0.015
7877,0.015
7878,-0.02
7879,-0.06
7880,-0.045
7881,-0.025
7882,-0.005
7883,0.01
7884,0.02
7885,0.01
7886,0.03
7887,0.015
7888,-0.05
7889,-0.075
7890,-0.075
7891,-0.025
7892,0.02
7893,0.045
7894,0.065
7895,0.025
7896,0.05
7897,0.01
7898,-0.02
7899,-0.045
7900,-0.03
7901,-0.005
7902,0.045
7903,0.065
7904,0.085
7905,0.06
7906,0.05
7907,0.03
7908,-0.025
7909,-0.055
7910,-0.015
7911,-0.015
7912,0.015
7913,0.11
7914,0.14
7915,0.09
7916,-0.01
7917,-0.035
7918,0
7919,-0.005
7920,0
7921,0.02
7922,0.045
7923,0.105
7924,0.11
7925,0.115
7926,0.08
7927,0.035
7928,0.025
7929,-0.005
7930,0.015
7931,0.025
7932,0.115
7933,0.11
7934,0.125
7935,0.15
7936,0.09
7937,0.04
7938,0.025
7939,0.03
7940,0.055
7941,0.07
7942,0.12
7943,0.17
7944,0.18
7945,0.185
7946,0.185
7947,0.135
7948,0.09
7949,0.09
7950,0.065
7951,0.11
7952,0.145
7953,0.19
7954,0.195
7955,0.225
7956,0.26
7957,0.19
7958,0.17
7959,0.175
7960,0.205
7961,0.22
7962,0.25
7963,0.285
7964,0.31
7965,0.285
7966,0.31
7967,0.255
7968,0.25
7969,0.21
7970,0.22
7971,0.235
7972,0.31
7973,0.34
7974,0.345
7975,0.335
7976,0.3
7977,0.26
7978,0.22
7979,0.19
7980,0.185
7981,0.205
7982,0.265
7983,0.265
7984,0.255
7985,0.275
7986,0.225
7987,0.13
7988,0.08
7989,0.085
7990,0.075
7991,0.11
7992,0.15
7993,0.165
7994,0.17
7995,0.155
7996,0.1
7997,0.04
7998,0.005
7999,-0.005
8000,-0.005
8001,0.03
8002,0.095
8003,0.105
8004,0.11
8005,0.005
8006,0.035
8007,-0.005
8008,-0.015
8009,-0.03
8010,-0.02
8011,-0.005
8012,0.06
8013,0.06
8014,0.06
8015,0.06
8016,0.02
8017,-0.035
8018,-0.065
8019,-0.045
8020,-0.025
8021,-0.025
8022,0.02
8023,0.03
8024,0.055
8025,0.035
8026,-0.035
8027,-0.05
8028,-0.04
8029,-0.04
8030,-0.025
8031,-0.01
8032,0.03
8033,0.045
8034,0.055
8035,0.025
8036,0.01
8037,-0.035
8038,-0.055
8039,-0.065
8040,-0.05
8041,0.045
8042,0.065
8043,0.035
8044,0.045
8045,0.065
8046,0.035
8047,-0.03
8048,-0.055
8049,-0.02
8050,-0.035
8051,0.05
8052,0.07
8053,0.07
8054,0.05
8055,0.065
8056,0.02
8057,-0.095
8058,-0.06
8059,-0.035
8060,-0.015
8061,0.04
8062,0.055
8063,0.02
8064,0.045
8065,0.085
8066,0.015
8067,-0.01
8068,-0.035
8069,-0.055
8070,-0.04
8071,0
8072,0.075
8073,0.065
8074,0.07
8075,0.06
8076,-0.015
8077,-0.045
8078,-0.065
8079,-0.035
8080,-0.025
8081,0.03
8082,0.085
8083,0.06
8084,0.055
8085,0.035
8086,0.01
8087,-0.005
8088,-0.035
8089,-0.025
8090,-0.04
8091,0.03
8092,0.075
8093,0.08
8094,0.09
8095,0.07
8096,-0.005
8097,-0.05
8098,-0.04
8099,-0.055
8100,-0.04
8101,0.035
8102,0.065
8103,0.025
8104,0.035
8105,0.02
8106,-0.015
8107,-0.045
8108,-0.065
8109,-0.025
8110,-0.01
8111,0.045
8112,0.03
8113,0.04
8114,0.035
8115,0
8116,-0.06
8117,-0.08
8118,-0.06
8119,-0.095
8120,-0.02
8121,0.075
8122,0.085
8123,0.095
8124,0.055
8125,0.06
8126,-0.03
8127,-0.04
8128,-0.055
8129,-0.03
8130,-0.025
8131,0.04
8132,0.055
8133,0.06
8134,0.055
8135,0.045
8136,-0.005
8137,-0.035
8138,-0.045
8139,-0.06
8140,-0.075
8141,0.015
8142,0.05
8143,0.035
8144,0.065
8145,0.015
8146,-0.05
8147,-0.07
8148,-0.06
8149,-0.05
8150,0
8151,0.05
8152,0.03
8153,0.04
8154,0.055
8155,0.02
8156,-0.035
8157,-0.07
8158,-0.07
8159,-0.04
8160,-0.025
8161,0.04
8162,0.06
8163,0.075
8164,0.06
8165,0.01
8166,-0.035
8167,-0.045
8168,-0.05
8169,-0.085
8170,-0.03
8171,0.04
8172,0.065
8173,0.1
8174,0.08
8175,0.03
8176,-0.03
8177,-0.09
8178,-0.08
8179,-0.06
8180,-0.015
8181,0.06
8182,0.06
8183,0.045
8184,0.05
8185,-0.015
8186,-0.06
8187,-0.1
8188,-0.06
8189,-0.07
8190,0.02
8191,0.05
8192,0.07
8193,0.045
8194,0.055
8195,0.005
8196,-0.045
8197,-0.095
8198,-0.05
8199,-0.015
8200,-0.015
8201,0.04
8202,0.045
8203,0.065
8204,0.045
8205,-0.05
8206,-0.085
8207,-0.085
8208,-0.105
8209,-0.05
8210,0.03
8211,0.075
8212,0.075
8213,0.055
8214,0.035
8215,0
8216,-0.015
8217,-0.05
8218,-0.055
8219,-0.03
8220,0.06
8221,0.105
8222,0.09
8223,0.105
8224,0.065
8225,0.005
8226,-0.055
8227,-0.045
8228,0
8229,0.005
8230,0.06
8231,0.1
8232,0.135
8233,0.1
8234,0.07
8235,0.01
8236,0.02
8237,-0.015
8238,0.02
8239,0.01
8240,0.105
8241,0.12
8242,0.115
8243,0.05
8244,0.08
8245,-0.005
8246,0
8247,-0.015
8248,-0.025
8249,-0.02
8250,0.04
8251,0.04
8252,0.06
8253,0.04
8254,0.045
8255,-0.035
8256,-0.055
8257,-0.065
8258,-0.04
8259,-0.045
8260,0.01
8261,0.055
8262,0.08
8263,0.04
8264,0.06
8265,-0.02
8266,-0.095
8267,-0.085
8268,-0.055
8269,-0.055
8270,-0.01
8271,0.06
8272,0.065
8273,0.035
8274,-0.01
8275,-0.06
8276,-0.065
8277,-0.075
8278,-0.065
8279,-0.075
8280,0.045
8281,0.045
8282,0.06
8283,0.03
8284,-0.01
8285,-0.045
8286,-0.085
8287,-0.045
8288,-0.06
8289,-0.04
8290,0.05
8291,0.045
8292,0.035
8293,0.025
8294,0.015
8295,-0.065
8296,-0.055
8297,-0.09
8298,-0.06
8299,-0.05
8300,0.005
8301,0
8302,0.02
8303,-0.03
8304,-0.05
8305,-0.05
8306,-0.06
8307,-0.015
8308,0.03
8309,0.11
8310,0.205
8311,0.31
8312,0.4
8313,0.455
8314,0.49
8315,0.565
8316,0.635
8317,0.595
8318,0.625
8319,0.615
8320,0.595
8321,0.565
8322,0.475
8323,0.365
8324,0.2
8325,0
8326,-0.075
8327,-0.155
8328,-0.135
8329,-0.11
8330,-0.09
8331,-0.055
8332,-0.045
8333,-0.045
8334,-0.025
8335,-0.025
8336,-0.015
8337,-0.03
8338,-0.005
8339,0.025
8340,0.065
8341,0.09
8342,0.025
8343,0.005
8344,-0.005
8345,-0.01
8346,-0.045
8347,-0.04
8348,-0.03
8349,0.02
8350,0.055
8351,0.045
8352,0.095
8353,0.09
8354,0.035
8355,-0.015
8356,0
8357,0.01
8358,0.03
8359,0.095
8360,0.095
8361,0.035
8362,0.045
8363,0.05
8364,0.035
8365,-0.015
8366,-0.035
8367,-0.02
8368,-0.025
8369,0.06
8370,0.105
8371,0.09
8372,0.065
8373,0.06
8374,0.055
8375,0.02
8376,0.025
8377,0.035
8378,0.025
8379,0.115
8380,0.09
8381,0.08
8382,0.1
8383,0.09
8384,0.025
8385,0.055
8386,0.03
8387,0.065
8388,0.075
8389,0.13
8390,0.175
8391,0.16
8392,0.075
8393,0.09
8394,0.065
8395,0.05
8396,0.045
8397,0.07
8398,0.07
8399,0.15
8400,0.185
8401,0.155
8402,0.14
8403,0.16
8404,0.135
8405,0.11
8406,0.1
8407,0.125
8408,0.12
8409,0.155
8410,0.24
8411,0.26
8412,0.265
8413,0.235
8414,0.21
8415,0.135
8416,0.145
8417,0.215
8418,0.21
8419,0.29
8420,0.285
8421,0.3
8422,0.33
8423,0.32
8424,0.195
8425,0.215
8426,0.22
8427,0.24
8428,0.24
8429,0.295
8430,0.34
8431,0.35
8432,0.355
8433,0.32
8434,0.235
8435,0.19
8436,0.19
8437,0.21
8438,0.255
8439,0.305
8440,0.305
8441,0.245
8442,0.24
8443,0.215
8444,0.19
8445,0.19
8446,0.13
8447,0.135
8448,0.12
8449,0.18
8450,0.22
8451,0.185
8452,0.195
8453,0.11
8454,0.05
8455,0.04
8456,0.04
8457,0.055
8458,0.09
8459,0.12
8460,0.105
8461,0.11
8462,0.105
8463,0.075
8464,0.01
8465,-0.02
8466,-0.035
8467,-0.02
8468,0.005
8469,0.06
8470,0.08
8471,0.09
8472,0.075
8473,0.02
8474,-0.035
8475,-0.035
8476,-0.065
8477,-0.015
8478,0.005
8479,0.075
8480,0.045
8481,0.03
8482,0.05
8483,0.03
8484,-0.025
8485,-0.05
8486,-0.03
8487,-0.015
8488,0.05
8489,0.035
8490,0.015
8491,0.04
8492,0.005
8493,0
8494,-0.015
8495,-0.07
8496,-0.04
8497,-0.02
8498,0.02
8499,0.045
8500,0.065
8501,0.08
8502,0.08
8503,0.015
8504,-0.06
8505,-0.04
8506,-0.035
8507,-0.045
8508,0.035
8509,0.105
8510,0.11
8511,0.105
8512,0.095
8513,0.01
8514,-0.025
8515,-0.045
8516,-0.015
8517,-0.025
8518,-0.02
8519,0.1
8520,0.125
8521,0.065
8522,0.055
8523,-0.005
8524,-0.02
8525,-0.01
8526,-0.015
8527,0.015
8528,0.025
8529,0.055
8530,0.065
8531,0.06
8532,0.04
8533,0.025
8534,-0.01
8535,-0.04
8536,-0.045
8537,-0.015
8538,0.045
8539,0.06
8540,0.075
8541,0.035
8542,0.055
8543,0.025
8544,-0.02
8545,-0.035
8546,-0.015
8547,-0.015
8548,0.01
8549,0.075
8550,0.09
8551,0.055
8552,-0.035
8553,-0.025
8554,-0.015
8555,-0.01
8556,-0.065
8557,-0.07
8558,0.065
8559,0.04
8560,0.05
8561,0.06
8562,0.05
8563,0.015
8564,-0.07
8565,-0.065
8566,-0.025
8567,-0.02
8568,0.01
8569,0.055
8570,0.01
8571,0.045
8572,0.06
8573,-0.015
8574,-0.025
8575,-0.025
8576,-0.03
8577,-0.02
8578,0.05
8579,0.065
8580,0.06
8581,0.055
8582,0.03
8583,-0.015
8584,-0.025
8585,-0.025
8586,-0.05
8587,-0.025
8588,0.005
8589,0.085
8590,0.035
8591,-0.005
8592,0.015
8593,-0.06
8594,-0.065
8595,-0.045
8596,-0.055
8597,-0.045
8598,0.045
8599,0.055
8600,0.035
8601,0.06
8602,0.055
8603,-0.07
8604,-0.065
8605,-0.07
8606,-0.045
8607,-0.07
8608,0.025
8609,0.07
8610,0.065
8611,0.075
8612,0.035
8613,-0.065
8614,-0.065
8615,-0.065
8616,-0.055
8617,-0.04
8618,0.055
8619,0.05
8620,0.02
8621,0.04
8622,0.015
8623,-0.045
8624,-0.05
8625,-0.05
8626,-0.085
8627,-0.01
8628,0.045
8629,0.03
8630,0.01
8631,0.045
8632,0.03
8633,-0.025
8634,-0.085
8635,-0.055
8636,-0.065
8637,-0.075
8638,0.045
8639,0.055
8640,0.045
8641,0.035
8642,-0.02
8643,-0.06
8644,-0.045
8645,-0.03
8646,0.005
8647,-0.015
8648,0.06
8649,0.09
8650,0.05
8651,0.065
8652,0.03
8653,-0.02
8654,-0.05
8655,-0.015
8656,-0.025
8657,0.06
8658,0.09
8659,0.105
8660,0.1
8661,0.095
8662,0.07
8663,0.02
8664,0.01
8665,0.035
8666,-0.045
8667,0.01
8668,0.12
8669,0.14
8670,0.095
8671,0.12
8672,0.07
8673,-0.04
8674,-0.05
8675,-0.025
8676,-0.05
8677,0.03
8678,0.075
8679,0.1
8680,0.045
8681,0.04
8682,-0.02
8683,-0.05
8684,-0.065
8685,-0.06
8686,-0.055
8687,0.035
8688,0.035
8689,0.05
8690,0.07
8691,0.005
8692,-0.06
8693,-0.025
8694,-0.06
8695,-0.05
8696,-0.04
8697,0.035
8698,0.035
8699,0.01
8700,0.025
8701,0
8702,-0.04
8703,-0.065
8704,-0.1
8705,-0.115
8706,-0.075
8707,0.02
8708,0.055
8709,0.045
8710,0.02
8711,0.04
8712,-0.08
8713,-0.155
8714,-0.095
8715,-0.035
8716,0.005
8717,0.035
8718,0.03
8719,0.055
8720,0.015
8721,0.02
8722,-0.085
8723,-0.095
8724,-0.045
8725,-0.055
8726,-0.065
8727,-0.01
8728,0.01
8729,0.03
8730,0.01
8731,-0.015
8732,-0.095
8733,-0.12
8734,-0.06
8735,-0.05
8736,0.03
8737,0.125
8738,0.205
8739,0.305
8740,0.34
8741,0.385
8742,0.395
8743,0.47
8744,0.59
8745,0.65
8746,0.65
8747,0.625
8748,0.59
8749,0.575
8750,0.475
8751,0.37
8752,0.215
8753,0.04
8754,-0.055
8755,-0.125
8756,-0.135
8757,-0.05
8758,-0.02
8759,0.005
8760,-0.005
8761,0.005
8762,-0.02
8763,-0.055
8764,-0.05
8765,-0.005
8766,-0.015
8767,0.045
8768,0.075
8769,0.045
8770,0.03
8771,0.02
8772,-0.035
8773,-0.06
8774,-0.055
8775,-0.04
8776,0.02
8777,0.055
8778,0.05
8779,0.075
8780,0.06
8781,0.04
8782,-0.025
8783,-0.05
8784,-0.05
8785,-0.015
8786,0.015
8787,0.085
8788,0.09
8789,0.04
8790,0.065
8791,0.035
8792,0
8793,-0.015
8794,-0.04
8795,-0.015
8796,0.035
8797,0.065
8798,0.08
8799,0.09
8800,0.095
8801,0.045
8802,0.025
8803,0.005
8804,0
8805,-0.005
8806,0.065
8807,0.11
8808,0.065
8809,0.105
8810,0.075
8811,0.07
8812,0.04
8813,0.015
8814,-0.035
8815,0.005
8816,0.08
8817,0.125
8818,0.165
8819,0.115
8820,0.12
8821,0.09
8822,0.04
8823,0.015
8824,0.05
8825,0.055
8826,0.11
8827,0.165
8828,0.16
8829,0.175
8830,0.18
8831,0.135
8832,0.11
8833,0.01
8834,0.06
8835,0.08
8836,0.15
8837,0.185
8838,0.225
8839,0.23
8840,0.22
8841,0.185
8842,0.14
8843,0.15
8844,0.17
8845,0.19
8846,0.245
8847,0.27
8848,0.295
8849,0.325
8850,0.3
8851,0.21
8852,0.205
8853,0.19
8854,0.23
8855,0.225
8856,0.27
8857,0.31
8858,0.315
8859,0.27
8860,0.325
8861,0.245
8862,0.205
8863,0.21
8864,0.21
8865,0.205
8866,0.26
8867,0.26
8868,0.25
8869,0.235
8870,0.265
8871,0.215
8872,0.135
8873,0.11
8874,0.1
8875,0.1
8876,0.185
8877,0.2
8878,0.21
8879,0.15
8880,0.105
8881,0.08
8882,0.035
8883,0.025
8884,0.035
8885,0.035
8886,0.1
8887,0.13
8888,0.13
8889,0.055
8890,0.055
8891,-0.045
8892,-0.04
8893,-0.065
8894,-0.06
8895,-0.045
8896,0.035
8897,0.07
8898,0.065
8899,0.09
8900,0.08
8901,0.01
8902,-0.065
8903,-0.04
8904,-0.045
8905,-0.015
8906,0.035
8907,0.055
8908,0.07
8909,0.05
8910,0.04
8911,-0.04
8912,-0.12
8913,-0.11
8914,-0.06
8915,0.01
8916,0.04
8917,0.065
8918,0.06
8919,0.035
8920,0.025
8921,-0.02
8922,-0.045
8923,-0.055
8924,-0.1
8925,-0.04
8926,0.045
8927,0.01
8928,-0.005
8929,0.025
8930,0.02
8931,-0.005
8932,-0.03
8933,-0.08
8934,-0.025
8935,0.005
8936,0.04
8937,0.09
8938,0.06
8939,0.05
8940,0.03
8941,-0.035
8942,-0.04
8943,-0.045
8944,-0.04
8945,0.015
8946,0.08
8947,0.09
8948,0.08
8949,0.05
8950,-0.01
8951,-0.045
8952,-0.045
8953,-0.055
8954,-0.015
8955,-0.005
8956,0.03
8957,0.035
8958,0.07
8959,0.05
8960,0.015
8961,-0.08
8962,-0.06
8963,-0.025
8964,0
8965,-0.02
8966,0.04
8967,0.035
8968,0.035
8969,0.07
8970,0.005
8971,-0.03
8972,-0.03
8973,-0.06
8974,-0.025
8975,0.035
8976,0.04
8977,0.065
8978,0.065
8979,0.02
8980,-0.03
8981,-0.055
8982,-0.075
8983,-0.04
8984,-0.025
8985,0.03
8986,0.09
8987,-0.005
8988,-0.025
8989,0
8990,-0.04
8991,-0.055
8992,-0.065
8993,-0.1
8994,-0.075
8995,0.015
8996,0.045
8997,0.04
8998,0.03
8999,0.025
9000,-0.04
9001,-0.06
9002,-0.08
9003,-0.035
9004,-0.06
9005,-0.04
9006,0.03
9007,0.04
9008,0.02
9009,0.01
9010,-0.03
9011,-0.04
9012,-0.085
9013,-0.11
9014,-0.065
9015,0
9016,0.035
9017,0.03
9018,0.03
9019,0.01
9020,-0.045
9021,-0.055
9022,-0.07
9023,-0.075
9024,-0.08
9025,0.02
9026,0.005
9027,0.06
9028,0.035
9029,-0.07
9030,-0.05
9031,-0.11
9032,-0.105
9033,-0.055
9034,-0.045
9035,-0.065
9036,-0.03
9037,0.045
9038,0.05
9039,0.03
9040,-0.07
9041,-0.075
9042,-0.09
9043,-0.08
9044,-0.06
9045,-0.025
9046,-0.01
9047,0.03
9048,0.02
9049,0.005
9050,-0.055
9051,-0.08
9052,-0.105
9053,-0.065
9054,-0.04
9055,-0.005
9056,0.02
9057,0.045
9058,-0.01
9059,-0.03
9060,-0.065
9061,-0.085
9062,-0.1
9063,-0.105
9064,-0.045
9065,-0.03
9066,0.015
9067,0.05
9068,0.075
9069,0.035
9070,-0.13
9071,-0.125
9072,-0.08
9073,-0.09
9074,-0.055
9075,0.02
9076,0.035
9077,0.04
9078,0.04
9079,0.02
9080,-0.035
9081,-0.03
9082,-0.06
9083,-0.065
9084,-0.025
9085,0.03
9086,0.02
9087,-0.005
9088,0.035
9089,0.04
9090,-0.055
9091,-0.055
9092,-0.08
9093,-0.045
9094,0.005
9095,0.055
9096,0.095
9097,0.115
9098,0.085
9099,0.04
9100,0
9101,-0.025
9102,-0.03
9103,0
9104,0.015
9105,0.035
9106,0.06
9107,0.035
9108,0.05
9109,0.005
9110,-0.045
9111,-0.06
9112,-0.055
9113,-0.045
9114,-0.015
9115,-0.01
9116,0.04
9117,-0.005
9118,0
9119,-0.015
9120,-0.085
9121,-0.1
9122,-0.07
9123,-0.075
9124,-0.04
9125,0
9126,0
9127,0.015
9128,0.01
9129,-0.025
9130,-0.095
9131,-0.13
9132,-0.13
9133,-0.09
9134,-0.04
9135,-0.005
9136,-0.015
9137,-0.01
9138,-0.015
9139,-0.06
9140,-0.075
9141,-0.125
9142,-0.12
9143,-0.11
9144,-0.05
9145,-0.025
9146,0
9147,0.015
9148,-0.01
9149,-0.095
9150,-0.135
9151,-0.17
9152,-0.105
9153,-0.08
9154,-0.03
9155,0
9156,0.015
9157,-0.03
9158,-0.06
9159,-0.1
9160,-0.095
9161,-0.145
9162,-0.135
9163,-0.09
9164,-0.055
9165,-0.05
9166,-0.04
9167,-0.095
9168,0.035
9169,0.055
9170,0.08
9171,0.11
9172,0.19
9173,0.225
9174,0.355
9175,0.465
9176,0.625
9177,0.74
9178,0.72
9179,0.63
9180,0.55
9181,0.45
9182,0.435
9183,0.395
9184,0.35
9185,0.25
9186,0.11
9187,-0.015
9188,-0.1
9189,-0.18
9190,-0.195
9191,-0.185
9192,-0.175
9193,-0.135
9194,-0.005
9195,0.035
9196,0.05
9197,0.06
9198,0.04
9199,-0.045
9200,-0.08
9201,-0.09
9202,-0.09
9203,-0.075
9204,0.025
9205,0.035
9206,0.025
9207,-0.02
9208,0
9209,-0.045
9210,-0.07
9211,-0.055
9212,-0.135
9213,-0.07
9214,0.025
9215,0.045
9216,0.075
9217,0.015
9218,-0.015
9219,-0.085
9220,-0.085
9221,-0.045
9222,-0.08
9223,-0.055
9224,0.05
9225,0.075
9226,0.07
9227,0.04
9228,0.005
9229,-0.04
9230,-0.045
9231,-0.06
9232,-0.03
9233,0.015
9234,0.04
9235,0.065
9236,0.09
9237,0.07
9238,0.03
9239,-0.025
9240,-0.02
9241,-0.025
9242,-0.04
9243,0.015
9244,0.035
9245,0.08
9246,0.12
9247,0.08
9248,0.04
9249,-0.04
9250,-0.05
9251,-0.035
9252,-0.05
9253,0.05
9254,0.145
9255,0.135
9256,0.115
9257,0.08
9258,0.03
9259,0.01
9260,0.035
9261,0.005
9262,0.045
9263,0.105
9264,0.165
9265,0.165
9266,0.16
9267,0.11
9268,0.095
9269,0.08
9270,0.065
9271,0.07
9272,0.1
9273,0.17
9274,0.2
9275,0.17
9276,0.195
9277,0.225
9278,0.175
9279,0.13
9280,0.125
9281,0.13
9282,0.155
9283,0.23
9284,0.25
9285,0.275
9286,0.28
9287,0.275
9288,0.215
9289,0.175
9290,0.175
9291,0.21
9292,0.19
9293,0.165
9294,0.28
9295,0.3
9296,0.26
9297,0.28
9298,0.185
9299,0.165
9300,0.125
9301,0.155
9302,0.145
9303,0.205
9304,0.22
9305,0.215
9306,0.205
9307,0.185
9308,0.13
9309,0.045
9310,-0.005
9311,0.035
9312,0.04
9313,0.075
9314,0.09
9315,0.11
9316,0.105
9317,0.125
9318,0.045
9319,-0.005
9320,-0.09
9321,-0.06
9322,-0.05
9323,0.04
9324,0.065
9325,0.015
9326,0.005
9327,0.02
9328,-0.01
9329,-0.04
9330,-0.09
9331,-0.065
9332,-0.055
9333,-0.01
9334,0.04
9335,0.015
9336,-0.015
9337,0.005
9338,-0.11
9339,-0.085
9340,-0.07
9341,-0.05
9342,-0.075
9343,0.01
9344,0.005
9345,0.005
9346,0.03
9347,0.02
9348,-0.055
9349,-0.085
9350,-0.11
9351,-0.12
9352,-0.11
9353,0.01
9354,0.045
9355,0.035
9356,0
9357,-0.005
9358,-0.06
9359,-0.115
9360,-0.105
9361,-0.085
9362,-0.05
9363,-0.01
9364,0.03
9365,0.045
9366,0.015
9367,-0.005
9368,-0.095
9369,-0.075
9370,-0.075
9371,-0.05
9372,-0.045
9373,-0.01
9374,0.005
9375,0.01
9376,0.015
9377,0
9378,-0.05
9379,-0.055
9380,-0.085
9381,-0.105
9382,-0.08
9383,0.015
9384,0.055
9385,0.02
9386,-0.025
9387,-0.02
9388,-0.045
9389,-0.09
9390,-0.13
9391,-0.05
9392,-0.015
9393,0.04
9394,0.025
9395,0.035
9396,0.045
9397,-0.07
9398,-0.07
9399,-0.05
9400,-0.06
9401,-0.04
9402,-0.015
9403,0.03
9404,0.045
9405,0.025
9406,0.005
9407,-0.01
9408,-0.06
9409,-0.11
9410,-0.095
9411,-0.085
9412,-0.015
9413,0.01
9414,0.01
9415,-0.01
9416,-0.025
9417,-0.06
9418,-0.09
9419,-0.07
9420,-0.075
9421,-0.06
9422,-0.065
9423,-0.02
9424,0.045
9425,-0.01
9426,0.005
9427,-0.015
9428,-0.115
9429,-0.145
9430,-0.08
9431,-0.06
9432,0.005
9433,0.015
9434,-0.01
9435,-0.005
9436,0.01
9437,-0.015
9438,-0.08
9439,-0.085
9440,-0.11
9441,-0.07
9442,-0.06
9443,-0.01
9444,0.005
9445,-0.01
9446,-0.035
9447,-0.09
9448,-0.085
9449,-0.11
9450,-0.085
9451,-0.075
9452,-0.03
9453,-0.005
9454,0
9455,-0.015
9456,-0.015
9457,-0.07
9458,-0.105
9459,-0.11
9460,-0.1
9461,-0.065
9462,-0.025
9463,-0.015
9464,0.015
9465,0
9466,-0.035
9467,-0.09
9468,-0.06
9469,-0.075
9470,-0.11
9471,-0.035
9472,-0.025
9473,-0.05
9474,0.025
9475,0.01
9476,-0.02
9477,-0.095
9478,-0.095
9479,-0.095
9480,-0.085
9481,-0.12
9482,-0.04
9483,-0.02
9484,0
9485,-0.025
9486,0.015
9487,-0.07
9488,-0.12
9489,-0.11
9490,-0.095
9491,-0.08
9492,-0.015
9493,-0.015
9494,-0.02
9495,-0.05
9496,-0.03
9497,-0.08
9498,-0.105
9499,-0.12
9500,-0.08
9501,-0.075
9502,0.01
9503,0
9504,0.03
9505,0.015
9506,0.01
9507,-0.06
9508,-0.05
9509,-0.06
9510,-0.08
9511,-0.04
9512,0.02
9513,0.035
9514,0.03
9515,0.055
9516,0.01
9517,-0.01
9518,-0.015
9519,-0.085
9520,-0.015
9521,-0.025
9522,0.06
9523,0.045
9524,0.06
9525,0.095
9526,0.045
9527,-0.025
9528,-0.055
9529,-0.055
9530,-0.05
9531,-0.045
9532,0.035
9533,0.045
9534,0.035
9535,0.03
9536,-0.01
9537,-0.07
9538,-0.1
9539,-0.075
9540,-0.09
9541,-0.085
9542,-0.025
9543,0.01
9544,0.015
9545,-0.005
9546,-0.035
9547,-0.08
9548,-0.12
9549,-0.15
9550,-0.115
9551,-0.08
9552,0.005
9553,-0.005
9554,0.005
9555,-0.01
9556,-0.03
9557,-0.085
9558,-0.115
9559,-0.135
9560,-0.12
9561,-0.1
9562,-0.03
9563,-0.025
9564,-0.015
9565,-0.02
9566,-0.065
9567,-0.135
9568,-0.105
9569,-0.145
9570,-0.125
9571,-0.035
9572,-0.005
9573,0
9574,-0.035
9575,-0.075
9576,-0.1
9577,-0.1
9578,-0.125
9579,-0.14
9580,-0.105
9581,-0.09
9582,-0.05
9583,-0.03
9584,-0.02
9585,-0.07
9586,-0.11
9587,-0.145
9588,-0.175
9589,-0.145
9590,-0.06
9591,0.05
9592,0.145
9593,0.2
9594,0.255
9595,0.275
9596,0.265
9597,0.375
9598,0.45
9599,0.54
9600,0.63
9601,0.665
9602,0.62
9603,0.59
9604,0.5
9605,0.415
9606,0.24
9607,0.125
9608,0.005
9609,-0.105
9610,-0.16
9611,-0.15
9612,-0.115
9613,-0.085
9614,-0.105
9615,-0.05
9616,-0.135
9617,-0.14
9618,-0.105
9619,-0.105
9620,-0.07
9621,-0.015
9622,-0.01
9623,0.015
9624,0
9625,-0.02
9626,-0.14
9627,-0.125
9628,-0.095
9629,-0.08
9630,-0.06
9631,-0.005
9632,0.03
9633,0.025
9634,0.015
9635,0
9636,-0.05
9637,-0.07
9638,-0.08
9639,-0.095
9640,-0.14
9641,-0.03
9642,0.035
9643,0.055
9644,0.02
9645,-0.01
9646,-0.07
9647,-0.09
9648,-0.085
9649,-0.065
9650,-0.045
9651,-0.025
9652,0.055
9653,0.05
9654,0.04
9655,0.025
9656,-0.065
9657,-0.065
9658,-0.07
9659,-0.055
9660,-0.04
9661,0.01
9662,0.055
9663,0.06
9664,0.08
9665,0.04
9666,-0.06
9667,-0.07
9668,-0.05
9669,-0.025
9670,-0.01
9671,0.065
9672,0.095
9673,0.1
9674,0.085
9675,0.04
9676,0.02
9677,0
9678,0.005
9679,-0.045
9680,-0.025
9681,0.11
9682,0.095
9683,0.06
9684,0.09
9685,0.075
9686,0.035
9687,0.055
9688,0.015
9689,0.08
9690,0.09
9691,0.145
9692,0.135
9693,0.16
9694,0.145
9695,0.155
9696,0.105
9697,0.11
9698,0.09
9699,0.13
9700,0.165
9701,0.25
9702,0.23
9703,0.215
9704,0.22
9705,0.23
9706,0.18
9707,0.14
9708,0.18
9709,0.18
9710,0.2
9711,0.275
9712,0.275
9713,0.23
9714,0.26
9715,0.235
9716,0.21
9717,0.16
9718,0.16
9719,0.14
9720,0.205
9721,0.22
9722,0.23
9723,0.22
9724,0.215
9725,0.175
9726,0.11
9727,0.085
9728,0.095
9729,0.085
9730,0.13
9731,0.175
9732,0.17
9733,0.155
9734,0.13
9735,0.045
9736,-0.025
9737,0.005
9738,-0.03
9739,-0.045
9740,0.04
9741,0.075
9742,0.08
9743,0.06
9744,0.025
9745,-0.045
9746,-0.055
9747,-0.07
9748,-0.07
9749,-0.085
9750,-0.015
9751,0
9752,0.02
9753,0.03
9754,0.025
9755,-0.075
9756,-0.09
9757,-0.09
9758,-0.12
9759,-0.125
9760,-0.055
9761,-0.005
9762,0.02
9763,0.03
9764,0.005
9765,-0.075
9766,-0.08
9767,-0.12
9768,-0.105
9769,-0.09
9770,-0.035
9771,-0.025
9772,0.025
9773,0.025
9774,-0.03
9775,-0.095
9776,-0.135
9777,-0.15
9778,-0.095
9779,-0.065
9780,-0.025
9781,-0.01
9782,0
9783,-0.01
9784,0
9785,-0.065
9786,-0.09
9787,-0.13
9788,-0.105
9789,-0.08
9790,0.05
9791,0.01
9792,0.02
9793,-0.005
9794,-0.02
9795,-0.095
9796,-0.095
9797,-0.1
9798,-0.1
9799,-0.115
9800,0.01
9801,0.03
9802,0.025
9803,0.01
9804,-0.02
9805,-0.07
9806,-0.08
9807,-0.085
9808,-0.06
9809,-0.07
9810,0
9811,0.03
9812,0.015
9813,0.02
9814,-0.035
9815,-0.165
9816,-0.105
9817,-0.095
9818,-0.06
9819,-0.075
9820,-0.01
9821,0
9822,0.015
9823,0.025
9824,0.005
9825,-0.08
9826,-0.14
9827,-0.115
9828,-0.09
9829,-0.055
9830,-0.01
9831,-0.01
9832,0
9833,-0.01
9834,-0.035
9835,-0.105
9836,-0.09
9837,-0.1
9838,-0.06
9839,-0.07
9840,-0.025
9841,-0.015
9842,-0.045
9843,-0.01
9844,-0.03
9845,-0.145
9846,-0.135
9847,-0.1
9848,-0.13
9849,-0.085
9850,-0.035
9851,0.01
9852,-0.03
9853,-0.09
9854,-0.06
9855,-0.08
9856,-0.1
9857,-0.11
9858,-0.1
9859,-0.075
9860,-0.015
9861,-0.04
9862,-0.05
9863,-0.015
9864,-0.065
9865,-0.12
9866,-0.105
9867,-0.12
9868,-0.145
9869,-0.075
9870,-0.015
9871,0
9872,-0.005
9873,-0.025
9874,-0.06
9875,-0.115
9876,-0.135
9877,-0.115
9878,-0.1
9879,-0.04
9880,-0.02
9881,0.01
9882,-0.035
9883,-0.06
9884,-0.065
9885,-0.115
9886,-0.17
9887,-0.16
9888,-0.15
9889,-0.1
9890,-0.02
9891,-0.015
9892,-0.025
9893,-0.01
9894,-0.095
9895,-0.105
9896,-0.095
9897,-0.12
9898,-0.125
9899,-0.095
9900,-0.045
9901,-0.02
9902,-0.035
9903,0
9904,-0.08
9905,-0.145
9906,-0.125
9907,-0.11
9908,-0.105
9909,-0.06
9910,-0.06
9911,0.01
9912,0.01
9913,0.01
9914,-0.07
9915,-0.1
9916,-0.085
9917,-0.055
9918,-0.015
9919,0.015
9920,-0.02
9921,-0.02
9922,-0.01
9923,-0.04
9924,-0.125
9925,-0.105
9926,-0.075
9927,-0.045
9928,-0.045
9929,0.03
9930,0.075
9931,0.05
9932,0.02
9933,0.02
9934,0.01
9935,-0.09
9936,-0.055
9937,-0.075
9938,-0.085
9939,0.02
9940,0.075
9941,0.055
9942,-0.005
9943,0
9944,-0.075
9945,-0.095
9946,-0.1
9947,-0.11
9948,-0.11
9949,-0.045
9950,-0.02
9951,-0.015
9952,-0.02
9953,-0.025
9954,-0.105
9955,-0.12
9956,-0.13
9957,-0.13
9958,-0.115
9959,-0.065
9960,-0.06
9961,0
9962,0.005
9963,-0.05
9964,-0.175
9965,-0.165
9966,-0.15
9967,-0.175
9968,-0.13
9969,-0.08
9970,-0.045
9971,-0.02
9972,-0.02
9973,-0.04
9974,-0.09
9975,-0.14
9976,-0.165
9977,-0.165
9978,-0.12
9979,-0.05
9980,-0.03
9981,-0.015
9982,-0.04
9983,-0.07
9984,-0.135
9985,-0.17
9986,-0.155
9987,-0.13
9988,-0.11
9989,-0.075
9990,-0.04
9991,-0.085
9992,-0.105
9993,-0.135
9994,-0.21
9995,-0.205
9996,-0.15
9997,-0.105
9998,-0.12
9999,0.025
10000,-0.1
10001,-0.085
10002,-0.01
10003,0
10004,-0.025
10005,-0.035
10006,-0.045
10007,-0.075
10008,-0.125
10009,-0.125
10010,-0.15
10011,-0.1
10012,-0.02
10013,0.005
10014,0.01
10015,0
10016,-0.06
10017,-0.105
10018,-0.11
10019,-0.1
10020,-0.08
10021,-0.075
10022,-0.035
10023,0.01
10024,0.02
10025,-0.025
10026,-0.06
10027,-0.175
10028,-0.14
10029,-0.1
10030,-0.1
10031,-0.045
10032,-0.015
10033,-0.005
10034,-0.01
10035,-0.01
10036,-0.085
10037,-0.105
10038,-0.12
10039,-0.15
10040,-0.13
10041,-0.045
10042,-0.01
10043,-0.01
10044,-0.035
10045,-0.08
10046,-0.085
10047,-0.08
10048,-0.12
10049,-0.14
10050,-0.11
10051,-0.04
10052,0
10053,0
10054,-0.01
10055,-0.04
10056,-0.08
10057,-0.12
10058,-0.14
10059,-0.11
10060,-0.11
10061,-0.065
10062,-0.045
10063,-0.055
10064,-0.035
10065,-0.03
10066,-0.095
10067,-0.11
10068,-0.125
10069,-0.13
10070,-0.125
10071,-0.05
10072,-0.015
10073,0.005
10074,-0.01
10075,-0.05
10076,-0.1
10077,-0.09
10078,-0.12
10079,-0.12
10080,-0.085
10081,-0.015
10082,0.045
10083,0.055
10084,0
10085,-0.035
10086,-0.06
10087,-0.075
10088,-0.145
10089,-0.075
10090,-0.05
10091,0.015
10092,0.035
10093,0.025
10094,0.015
10095,0.015
10096,-0.055
10097,-0.07
10098,-0.035
10099,-0.055
10100,-0.02
10101,0.06
10102,0.075
10103,0.06
10104,-0.01
10105,-0.015
10106,-0.06
10107,-0.08
10108,-0.115
10109,-0.115
10110,-0.065
10111,0.015
10112,0.015
10113,0.025
10114,-0.025
10115,-0.05
10116,-0.095
10117,-0.15
10118,-0.14
10119,-0.12
10120,-0.075
10121,-0.06
10122,-0.065
10123,-0.01
10124,-0.02
10125,-0.065
10126,-0.12
10127,-0.155
10128,-0.17
10129,-0.15
10130,-0.115
10131,-0.05
10132,-0.05
10133,-0.04
10134,-0.04
10135,-0.07
10136,-0.125
10137,-0.14
10138,-0.135
10139,-0.125
10140,-0.11
10141,-0.08
10142,-0.02
10143,-0.01
10144,-0.045
10145,-0.065
10146,-0.135
10147,-0.185
10148,-0.185
10149,-0.18
10150,-0.095
10151,-0.07
10152,-0.055
10153,-0.05
10154,-0.05
10155,-0.095
10156,-0.15
10157,-0.165
10158,-0.165
10159,-0.165
10160,-0.135
10161,-0.155
10162,-0.085
10163,-0.065
10164,-0.03
10165,-0.005
10166,-0.02
10167,0.02
10168,0.1
10169,0.2
10170,0.3
10171,0.43
10172,0.565
10173,0.675
10174,0.75
10175,0.695
10176,0.645
10177,0.585
10178,0.52
10179,0.415
10180,0.335
10181,0.315
10182,0.19
10183,0.06
10184,-0.125
10185,-0.26
10186,-0.28
10187,-0.25
10188,-0.2
10189,-0.185
10190,-0.145
10191,-0.05
10192,-0.02
10193,-0.03
10194,-0.03
10195,-0.045
10196,-0.09
10197,-0.125
10198,-0.105
10199,-0.12
10200,-0.05
10201,-0.03
10202,-0.02
10203,-0.025
10204,-0.005
10205,-0.08
10206,-0.065
10207,-0.09
10208,-0.07
10209,-0.105
10210,-0.08
10211,-0.025
10212,-0.005
10213,-0.035
10214,-0.035
10215,-0.09
10216,-0.105
10217,-0.145
10218,-0.11
10219,-0.065
10220,-0.005
10221,0.03
10222,-0.015
10223,0.015
10224,0.01
10225,-0.06
10226,-0.075
10227,-0.095
10228,-0.08
10229,-0.075
10230,0.045
10231,0.06
10232,0.055
10233,-0.005
10234,-0.015
10235,-0.035
10236,-0.06
10237,-0.06
10238,-0.05
10239,-0.015
10240,-0.015
10241,0.025
10242,0.045
10243,0.04
10244,0.02
10245,-0.015
10246,-0.03
10247,0.01
10248,-0.05
10249,-0.095
10250,0.01
10251,0.08
10252,0.095
10253,0.08
10254,0.06
10255,0
10256,-0.01
10257,-0.015
10258,-0.005
10259,0.04
10260,0.09
10261,0.11
10262,0.14
10263,0.105
10264,0.1
10265,0.095
10266,0.06
10267,0.055
10268,0.075
10269,0.095
10270,0.16
10271,0.225
10272,0.225
10273,0.215
10274,0.215
10275,0.14
10276,0.115
10277,0.12
10278,0.125
10279,0.18
10280,0.245
10281,0.25
10282,0.28
10283,0.255
10284,0.215
10285,0.18
10286,0.16
10287,0.165
10288,0.19
10289,0.235
10290,0.285
10291,0.305
10292,0.27
10293,0.255
10294,0.205
10295,0.175
10296,0.17
10297,0.115
10298,0.145
10299,0.195
10300,0.2
10301,0.22
10302,0.215
10303,0.145
10304,0.12
10305,0.09
10306,0.085
10307,0.04
10308,0.03
10309,0.045
10310,0.085
10311,0.09
10312,0.14
10313,0.105
10314,0.03
10315,-0.025
10316,-0.055
10317,-0.035
10318,-0.035
10319,-0.005
10320,0.03
10321,0.035
10322,0.02
10323,0
10324,-0.05
10325,-0.08
10326,-0.115
10327,-0.1
10328,-0.115
10329,-0.05
10330,-0.01
10331,-0.01
10332,-0.005
10333,-0.015
10334,-0.055
10335,-0.095
10336,-0.12
10337,-0.115
10338,-0.09
10339,-0.025
10340,-0.005
10341,-0.02
10342,-0.03
10343,-0.025
10344,-0.07
10345,-0.105
10346,-0.125
10347,-0.125
10348,-0.1
10349,0
10350,0.02
10351,-0.05
10352,-0.065
10353,-0.01
10354,-0.07
10355,-0.09
10356,-0.125
10357,-0.12
10358,-0.085
10359,-0.03
10360,-0.005
10361,0.01
10362,-0.015
10363,-0.025
10364,-0.07
10365,-0.085
10366,-0.105
10367,-0.09
10368,-0.1
10369,-0.04
10370,0.02
10371,0.03
10372,0.015
10373,-0.03
10374,-0.115
10375,-0.115
10376,-0.115
10377,-0.07
10378,-0.065
10379,-0.01
10380,0.015
10381,-0.005
10382,0.025
10383,-0.03
10384,-0.12
10385,-0.135
10386,-0.11
10387,-0.07
10388,-0.075
10389,-0.01
10390,0.005
10391,0
10392,0.01
10393,0
10394,-0.055
10395,-0.09
10396,-0.08
10397,-0.08
10398,-0.105
10399,-0.01
10400,-0.025
10401,-0.01
10402,-0.015
10403,-0.015
10404,-0.095
10405,-0.115
10406,-0.11
10407,-0.09
10408,-0.065
10409,-0.015
10410,-0.005
10411,-0.015
10412,-0.02
10413,-0.035
10414,-0.085
10415,-0.12
10416,-0.105
10417,-0.11
10418,-0.095
10419,-0.035
10420,-0.025
10421,-0.01
10422,-0.02
10423,-0.06
10424,-0.1
10425,-0.14
10426,-0.145
10427,-0.08
10428,-0.08
10429,-0.035
10430,-0.015
10431,0
10432,-0.02
10433,-0.075
10434,-0.115
10435,-0.11
10436,-0.12
10437,-0.095
10438,-0.065
10439,-0.005
10440,0.005
10441,-0.005
10442,-0.06
10443,-0.08
10444,-0.1
10445,-0.095
10446,-0.135
10447,-0.13
10448,-0.085
10449,-0.025
10450,-0.015
10451,0
10452,-0.03
10453,-0.09
10454,-0.15
10455,-0.135
10456,-0.115
10457,-0.115
10458,-0.1
10459,-0.03
10460,-0.005
10461,-0.035
10462,-0.05
10463,-0.06
10464,-0.075
10465,-0.135
10466,-0.145
10467,-0.11
10468,-0.075
10469,-0.03
10470,-0.02
10471,-0.07
10472,-0.055
10473,-0.09
10474,-0.12
10475,-0.135
10476,-0.115
10477,-0.115
10478,-0.05
10479,-0.115
10480,-0.03
10481,-0.005
10482,-0.035
10483,-0.095
10484,-0.125
10485,-0.135
10486,-0.115
10487,-0.105
10488,-0.065
10489,-0.015
10490,-0.03
10491,-0.06
10492,-0.07
10493,-0.095
10494,-0.095
10495,-0.13
10496,-0.115
10497,-0.075
10498,-0.015
10499,-0.01
10500,-0.005
10501,0.005
10502,0
10503,-0.065
10504,-0.11
10505,-0.13
10506,-0.085
10507,-0.075
10508,-0.005
10509,0.04
10510,0.055
10511,0.005
10512,-0.065
10513,-0.055
10514,-0.105
10515,-0.105
10516,-0.065
10517,-0.05
10518,0.01
10519,0.025
10520,0.045
10521,0.045
10522,0.02
10523,-0.035
10524,-0.05
10525,-0.065
10526,-0.05
10527,-0.06
10528,-0.005
10529,0.02
10530,0.005
10531,-0.015
10532,-0.01
10533,-0.07
10534,-0.1
10535,-0.185
10536,-0.125
10537,-0.1
10538,-0.04
10539,-0.005
10540,-0.02
10541,-0.03
10542,-0.035
10543,-0.105
10544,-0.12
10545,-0.13
10546,-0.165
10547,-0.165
10548,-0.065
10549,-0.015
10550,-0.005
10551,-0.055
10552,-0.05
10553,-0.135
10554,-0.15
10555,-0.135
10556,-0.14
10557,-0.12
10558,-0.03
10559,-0.03
10560,-0.065
10561,-0.085
10562,-0.065
10563,-0.14
10564,-0.145
10565,-0.155
10566,-0.165
10567,-0.1
10568,-0.065
10569,-0.065
10570,-0.05
10571,-0.045
10572,-0.065
10573,-0.135
10574,-0.2
10575,-0.19
10576,-0.15
10577,-0.155
10578,-0.07
10579,-0.07
10580,-0.07
10581,-0.085
10582,-0.145
10583,-0.15
10584,-0.13
10585,-0.08
10586,0.005
10587,0.065
10588,0.2
10589,0.305
10590,0.35
10591,0.445
10592,0.565
10593,0.645
10594,0.68
10595,0.665
10596,0.645
10597,0.615
10598,0.595
10599,0.505
10600,0.425
10601,0.3
10602,0.12
10603,-0.06
10604,-0.175
10605,-0.235
10606,-0.245
10607,-0.19
10608,-0.165
10609,-0.1
10610,-0.065
10611,-0.07
10612,-0.09
10613,-0.075
10614,-0.105
10615,-0.115
10616,-0.12
10617,-0.085
10618,-0.06
10619,-0.005
10620,-0.035
10621,-0.04
10622,-0.06
10623,-0.07
10624,-0.08
10625,-0.12
10626,-0.16
10627,-0.085
10628,0.005
10629,-0.025
10630,0.01
10631,0
10632,-0.05
10633,-0.095
10634,-0.105
10635,-0.105
10636,-0.095
10637,-0.02
10638,0.005
10639,0.02
10640,0.02
10641,0.01
10642,-0.045
10643,-0.085
10644,-0.08
10645,-0.09
10646,-0.12
10647,-0.03
10648,-0.005
10649,0.025
10650,-0.035
10651,0
10652,-0.035
10653,-0.085
10654,-0.095
10655,-0.075
10656,-0.045
10657,0.015
10658,0.035
10659,0.06
10660,0.055
10661,0.005
10662,-0.05
10663,-0.055
10664,-0.03
10665,-0.03
10666,-0.03
10667,0.07
10668,0.065
10669,0.08
10670,0.065
10671,0.07
10672,0.015
10673,-0.005
10674,-0.05
10675,-0.05
10676,0.01
10677,0.095
10678,0.075
10679,0.105
10680,0.085
10681,0.105
10682,0.03
10683,0.015
10684,0.025
10685,0.03
10686,0.07
10687,0.145
10688,0.16
10689,0.175
10690,0.145
10691,0.155
10692,0.13
10693,0.085
10694,0.075
10695,0.115
10696,0.165
10697,0.235
10698,0.24
10699,0.265
10700,0.24
10701,0.21
10702,0.185
10703,0.16
10704,0.155
10705,0.2
10706,0.215
10707,0.26
10708,0.29
10709,0.29
10710,0.295
10711,0.265
10712,0.175
10713,0.175
10714,0.165
10715,0.175
10716,0.18
10717,0.235
10718,0.255
10719,0.245
10720,0.215
10721,0.185
10722,0.1
10723,0.09
10724,0.06
10725,0.06
10726,0.075
10727,0.13
10728,0.13
10729,0.115
10730,0.08
10731,0.055
10732,-0.02
10733,-0.04
10734,-0.035
10735,-0.035
10736,-0.01
10737,0.04
10738,0.05
10739,0.035
10740,0.01
10741,-0.005
10742,-0.075
10743,-0.1
10744,-0.1
10745,-0.095
10746,-0.065
10747,-0.01
10748,0
10749,-0.005
10750,-0.015
10751,-0.05
10752,-0.1
10753,-0.12
10754,-0.11
10755,-0.11
10756,-0.08
10757,-0.04
10758,-0.08
10759,-0.045
10760,-0.04
10761,-0.04
10762,-0.075
10763,-0.13
10764,-0.14
10765,-0.11
10766,-0.07
10767,-0.045
10768,-0.025
10769,-0.01
10770,-0.015
10771,-0.055
10772,-0.08
10773,-0.085
10774,-0.14
10775,-0.115
10776,-0.065
10777,-0.015
10778,0
10779,0.02
10780,-0.02
10781,-0.13
10782,-0.16
10783,-0.125
10784,-0.115
10785,-0.11
10786,-0.025
10787,0.01
10788,0.01
10789,0.01
10790,0
10791,-0.055
10792,-0.085
10793,-0.105
10794,-0.1
10795,-0.095
10796,-0.04
10797,0.02
10798,-0.035
10799,-0.025
10800,-0.005
10801,-0.06
10802,-0.1
10803,-0.11
10804,-0.085
10805,-0.1
10806,-0.045
10807,-0.01
10808,0.02
10809,0.01
10810,-0.005
10811,-0.06
10812,-0.09
10813,-0.095
10814,-0.085
10815,-0.05
10816,-0.01
10817,-0.115
10818,-0.055
10819,0.025
10820,0.005
10821,-0.07
10822,-0.125
10823,-0.115
10824,-0.1
10825,-0.11
10826,-0.045
10827,-0.015
10828,0.025
10829,0.005
10830,-0.03
10831,-0.075
10832,-0.11
10833,-0.125
10834,-0.115
10835,-0.105
10836,-0.06
10837,0
10838,0
10839,-0.005
10840,-0.035
10841,-0.115
10842,-0.13
10843,-0.135
10844,-0.13
10845,-0.12
10846,-0.03
10847,-0.02
10848,-0.02
10849,-0.03
10850,-0.04
10851,-0.12
10852,-0.13
10853,-0.125
10854,-0.13
10855,-0.09
10856,-0.045
10857,-0.025
10858,-0.005
10859,-0.015
10860,-0.06
10861,-0.13
10862,-0.135
10863,-0.125
10864,-0.13
10865,-0.105
10866,-0.025
10867,-0.035
10868,-0.06
10869,-0.045
10870,-0.045
10871,-0.105
10872,-0.12
10873,-0.135
10874,-0.12
10875,-0.125
10876,-0.055
10877,-0.035
10878,-0.02
10879,-0.06
10880,-0.07
10881,-0.1
10882,-0.145
10883,-0.125
10884,-0.12
10885,-0.1
10886,-0.02
10887,-0.035
10888,-0.045
10889,-0.05
10890,-0.1
10891,-0.15
10892,-0.12
10893,-0.125
10894,-0.165
10895,-0.105
10896,-0.045
10897,-0.025
10898,-0.015
10899,-0.01
10900,-0.03
10901,-0.09
10902,-0.115
10903,-0.145
10904,-0.11
10905,-0.075
10906,0.005
10907,0.03
10908,0
10909,-0.015
10910,-0.04
10911,-0.09
10912,-0.095
10913,-0.11
10914,-0.1
10915,0.02
10916,0.025
10917,-0.025
10918,-0.005
10919,-0.01
10920,-0.045
