0,-0.085
1,-0.08
2,-0.07
3,-0.075
4,-0.095
5,-0.09
6,-0.1
7,-0.1
8,-0.1
9,-0.085
10,-0.06
11,-0.045
12,-0.055
13,-0.06
14,-0.07
15,-0.08
16,-0.085
17,-0.08
18,-0.07
19,-0.04
20,-0.05
21,-0.045
22,-0.04
23,-0.04
24,-0.055
25,-0.06
26,-0.055
27,-0.055
28,-0.055
29,-0.045
30,-0.04
31,-0.045
32,-0.04
33,-0.03
34,-0.035
35,-0.045
36,-0.055
37,-0.055
38,-0.05
39,-0.02
40,-0.015
41,-0.01
42,0.005
43,0
44,-0.005
45,-0.025
46,-0.035
47,-0.03
48,-0.03
49,-0.015
50,-0.005
51,0
52,0.01
53,0.02
54,0
55,-0.005
56,0.005
57,0.005
58,0.01
59,0.025
60,0.04
61,0.055
62,0.06
63,0.045
64,0.04
65,0.045
66,0.04
67,0.04
68,0.07
69,0.075
70,0.09
71,0.105
72,0.105
73,0.115
74,0.105
75,0.1
76,0.1
77,0.095
78,0.125
79,0.155
80,0.16
81,0.16
82,0.175
83,0.175
84,0.155
85,0.16
86,0.15
87,0.15
88,0.16
89,0.18
90,0.19
91,0.19
92,0.2
93,0.19
94,0.18
95,0.175
96,0.165
97,0.16
98,0.165
99,0.155
100,0.165
101,0.165
102,0.17
103,0.145
104,0.135
105,0.11
106,0.09
107,0.07
108,0.075
109,0.085
110,0.085
111,0.07
112,0.07
113,0.05
114,0.04
115,0.025
116,0.005
117,-0.005
118,0
119,0
120,0.005
121,0.01
122,0
123,0.01
124,0.015
125,0.03
126,0.035
127,0.045
128,0.065
129,0.085
130,0.09
131,0.12
132,0.115
133,0.09
134,0.085
135,0.07
136,0.08
137,0.08
138,0.09
139,0.095
140,0.11
141,0.115
142,0.13
143,0.115
144,0.1
145,0.095
146,0.095
147,0.095
148,0.1
149,0.11
150,0.12
151,0.125
152,0.14
153,0.135
154,0.115
155,0.115
156,0.115
157,0.115
158,0.125
159,0.13
160,0.125
161,0.14
162,0.14
163,0.14
164,0.13
165,0.105
166,0.1
167,0.1
168,0.13
169,0.14
170,0.135
171,0.15
172,0.145
173,0.13
174,0.125
175,0.125
176,0.115
177,0.12
178,0.125
179,0.14
180,0.14
181,0.15
182,0.145
183,0.14
184,0.135
185,0.14
186,0.125
187,0.125
188,0.135
189,0.145
190,0.145
191,0.14
192,0.135
193,0.12
194,0.12
195,0.11
196,0.115
197,0.12
198,0.135
199,0.135
200,0.13
201,0.135
202,0.13
203,0.11
204,0.11
205,0.11
206,0.105
207,0.115
208,0.125
209,0.13
210,0.115
211,0.12
212,0.115
213,0.105
214,0.1
215,0.105
216,0.09
217,0.1
218,0.105
219,0.11
220,0.12
221,0.135
222,0.12
223,0.11
224,0.095
225,0.1
226,0.095
227,0.1
228,0.11
229,0.11
230,0.115
231,0.115
232,0.095
233,0.08
234,0.075
235,0.07
236,0.07
237,0.075
238,0.09
239,0.085
240,0.1
241,0.125
242,0.11
243,0.105
244,0.075
245,0.08
246,0.065
247,0.075
248,0.08
249,0.09
250,0.1
251,0.115
252,0.105
253,0.09
254,0.085
255,0.09
256,0.085
257,0.095
258,0.11
259,0.135
260,0.13
261,0.135
262,0.125
263,0.12
264,0.11
265,0.105
266,0.095
267,0.11
268,0.14
269,0.135
270,0.14
271,0.14
272,0.13
273,0.125
274,0.12
275,0.105
276,0.1
277,0.12
278,0.15
279,0.16
280,0.16
281,0.17
282,0.16
283,0.12
284,0.115
285,0.115
286,0.095
287,0.095
288,0.1
289,0.095
290,0.09
291,0.09
292,0.085
293,0.055
294,0.065
295,0.06
296,0.065
297,0.075
298,0.08
299,0.08
300,0.095
301,0.075
302,0.055
303,0.05
304,0.045
305,0.035
306,0.045
307,0.045
308,0.055
309,0.06
310,0.06
311,0.06
312,0.06
313,0.05
314,0.035
315,0.02
316,0.025
317,0.035
318,0.045
319,0.055
320,0.06
321,0.055
322,0.035
323,0.025
324,0.03
325,0.02
326,0.03
327,0.05
328,0.03
329,0.04
330,0.05
331,0.04
332,0.025
333,0
334,-0.01
335,-0.025
336,-0.03
337,-0.025
338,-0.015
339,-0.005
340,0.03
341,0.065
342,0.11
343,0.16
344,0.2
345,0.255
346,0.335
347,0.425
348,0.53
349,0.645
350,0.72
351,0.735
352,0.685
353,0.63
354,0.57
355,0.485
356,0.41
357,0.335
358,0.23
359,0.1
360,0.01
361,-0.06
362,-0.1
363,-0.1
364,-0.09
365,-0.085
366,-0.06
367,-0.02
368,0.01
369,0.035
370,0.04
371,0.035
372,0.015
373,-0.005
374,-0.02
375,-0.025
376,-0.01
377,0
378,0.005
379,0.025
380,0.025
381,0.02
382,0
383,0.005
384,-0.015
385,-0.02
386,-0.01
387,-0.01
388,0
389,0.01
390,0
391,0.005
392,0.005
393,-0.005
394,0
395,-0.01
396,0
397,0.015
398,0.02
399,0.025
400,0.04
401,0.025
402,0.01
403,0
404,-0.005
405,-0.005
406,0.005
407,0.025
408,0.025
409,0.03
410,0.025
411,0.01
412,0.02
413,0.005
414,0.01
415,0.005
416,0.015
417,0.02
418,0.035
419,0.04
420,0.05
421,0.05
422,0.045
423,0.04
424,0.025
425,0.03
426,0.03
427,0.04
428,0.045
429,0.055
430,0.06
431,0.065
432,0.065
433,0.07
434,0.07
435,0.065
436,0.08
437,0.095
438,0.105
439,0.105
440,0.12
441,0.115
442,0.115
443,0.11
444,0.1
445,0.1
446,0.115
447,0.13
448,0.15
449,0.155
450,0.16
451,0.15
452,0.16
453,0.165
454,0.155
455,0.16
456,0.175
457,0.2
458,0.205
459,0.21
460,0.205
461,0.195
462,0.185
463,0.18
464,0.18
465,0.18
466,0.18
467,0.2
468,0.205
469,0.205
470,0.195
471,0.17
472,0.15
473,0.135
474,0.13
475,0.125
476,0.13
477,0.115
478,0.13
479,0.13
480,0.115
481,0.095
482,0.08
483,0.07
484,0.055
485,0.03
486,0.015
487,0.025
488,0.025
489,0.02
490,0.01
491,-0.005
492,-0.02
493,-0.025
494,-0.035
495,-0.03
496,-0.01
497,0
498,-0.01
499,-0.005
500,-0.01
501,-0.03
502,-0.04
503,-0.055
504,-0.065
505,-0.055
506,-0.04
507,-0.045
508,-0.025
509,-0.035
510,-0.03
511,-0.05
512,-0.055
513,-0.06
514,-0.06
515,-0.045
516,-0.045
517,-0.035
518,-0.02
519,-0.03
520,-0.03
521,-0.05
522,-0.055
523,-0.055
524,-0.06
525,-0.055
526,-0.05
527,-0.04
528,-0.055
529,-0.03
530,-0.055
531,-0.05
532,-0.05
533,-0.06
534,-0.06
535,-0.045
536,-0.04
537,-0.04
538,-0.04
539,-0.04
540,-0.05
541,-0.055
542,-0.055
543,-0.06
544,-0.055
545,-0.03
546,-0.03
547,-0.025
548,-0.02
549,-0.015
550,-0.025
551,-0.035
552,-0.045
553,-0.05
554,-0.055
555,-0.045
556,-0.04
557,-0.02
558,-0.015
559,-0.01
560,-0.015
561,-0.02
562,-0.03
563,-0.035
564,-0.04
565,-0.03
566,-0.03
567,-0.025
568,-0.015
569,-0.015
570,-0.025
571,-0.02
572,-0.035
573,-0.04
574,-0.045
575,-0.045
576,-0.03
577,-0.025
578,-0.005
579,-0.01
580,-0.03
581,-0.03
582,-0.035
583,-0.05
584,-0.06
585,-0.04
586,-0.04
587,-0.03
588,-0.02
589,-0.025
590,-0.04
591,-0.045
592,-0.02
593,-0.05
594,-0.055
595,-0.04
596,-0.03
597,-0.035
598,-0.015
599,-0.02
600,-0.04
601,-0.05
602,-0.055
603,-0.06
604,-0.06
605,-0.055
606,-0.04
607,-0.04
608,-0.035
609,-0.02
610,-0.035
611,-0.045
612,-0.05
613,-0.07
614,-0.07
615,-0.05
616,-0.045
617,-0.035
618,-0.035
619,-0.035
620,-0.045
621,-0.055
622,-0.05
623,-0.05
624,-0.04
625,-0.035
626,-0.025
627,-0.005
628,-0.01
629,-0.025
630,-0.04
631,-0.03
632,-0.035
633,-0.04
634,-0.04
635,-0.025
636,-0.015
637,-0.01
638,0.015
639,-0.005
640,-0.005
641,-0.015
642,-0.02
643,-0.025
644,-0.025
645,-0.01
646,0.005
647,0.015
648,0.02
649,0.015
650,0.005
651,0.005
652,0
653,0
654,0
655,0
656,0.005
657,0.02
658,0.03
659,0.02
660,-0.01
661,-0.025
662,-0.035
663,-0.055
664,-0.05
665,-0.045
666,-0.04
667,-0.045
668,-0.025
669,-0.035
670,-0.06
671,-0.06
672,-0.07
673,-0.08
674,-0.065
675,-0.055
676,-0.05
677,-0.05
678,-0.035
679,-0.055
680,-0.055
681,-0.06
682,-0.065
683,-0.065
684,-0.06
685,-0.065
686,-0.065
687,-0.065
688,-0.065
689,-0.065
690,-0.08
691,-0.085
692,-0.08
693,-0.1
694,-0.09
695,-0.08
696,-0.06
697,-0.045
698,-0.045
699,-0.055
700,-0.06
701,-0.085
702,-0.085
703,-0.1
704,-0.1
705,-0.08
706,-0.075
707,-0.07
708,-0.075
709,-0.095
710,-0.105
711,-0.115
712,-0.14
713,-0.155
714,-0.135
715,-0.105
716,-0.045
717,0.02
718,0.075
719,0.125
720,0.17
721,0.225
722,0.275
723,0.39
724,0.515
725,0.64
726,0.69
727,0.66
728,0.615
729,0.555
730,0.485
731,0.39
732,0.305
733,0.195
734,0.085
735,-0.03
736,-0.115
737,-0.155
738,-0.145
739,-0.125
740,-0.115
741,-0.11
742,-0.085
743,-0.05
744,-0.055
745,-0.03
746,-0.035
747,-0.045
748,-0.04
749,-0.04
750,-0.065
751,-0.07
752,-0.08
753,-0.075
754,-0.07
755,-0.06
756,-0.05
757,-0.03
758,-0.045
759,-0.045
760,-0.055
761,-0.06
762,-0.055
763,-0.06
764,-0.04
765,-0.035
766,-0.025
767,-0.01
768,-0.025
769,-0.045
770,-0.05
771,-0.055
772,-0.05
773,-0.055
774,-0.03
775,-0.025
776,-0.02
777,-0.01
778,-0.01
779,-0.02
780,-0.03
781,-0.025
782,-0.02
783,-0.015
784,0.005
785,0.02
786,0.025
787,0.025
788,0.015
789,0.005
790,-0.01
791,-0.01
792,-0.01
793,0.01
794,0.015
795,0.025
796,0.045
797,0.06
798,0.065
799,0.05
800,0.04
801,0.045
802,0.04
803,0.045
804,0.045
805,0.06
806,0.065
807,0.07
808,0.065
809,0.065
810,0.065
811,0.065
812,0.075
813,0.08
814,0.1
815,0.115
816,0.125
817,0.13
818,0.14
819,0.14
820,0.15
821,0.135
822,0.13
823,0.14
824,0.17
825,0.175
826,0.19
827,0.2
828,0.205
829,0.19
830,0.2
831,0.2
832,0.195
833,0.21
834,0.225
835,0.235
836,0.23
837,0.24
838,0.225
839,0.225
840,0.205
841,0.2
842,0.19
843,0.19
844,0.205
845,0.205
846,0.22
847,0.23
848,0.205
849,0.195
850,0.175
851,0.165
852,0.155
853,0.15
854,0.14
855,0.135
856,0.13
857,0.11
858,0.105
859,0.085
860,0.075
861,0.065
862,0.06
863,0.065
864,0.06
865,0.06
866,0.05
867,0.045
868,0.04
869,0.02
870,0.01
871,0
872,0
873,0.01
874,0.015
875,0.01
876,0.02
877,0.01
878,0
879,-0.02
880,-0.02
881,-0.04
882,-0.035
883,-0.025
884,-0.015
885,-0.005
886,0.005
887,-0.005
888,-0.02
889,-0.025
890,-0.025
891,-0.025
892,-0.025
893,-0.025
894,-0.01
895,0.005
896,0.015
897,0.01
898,0.005
899,-0.02
900,-0.015
901,-0.015
902,-0.02
903,-0.025
904,-0.02
905,-0.02
906,0
907,0.015
908,-0.005
909,-0.01
910,-0.02
911,-0.03
912,-0.03
913,-0.015
914,0
915,0.01
916,0.015
917,0.015
918,-0.005
919,-0.01
920,-0.035
921,-0.025
922,-0.025
923,-0.02
924,0.005
925,0.015
926,0.02
927,0.025
928,0
929,-0.01
930,-0.025
931,-0.035
932,-0.02
933,-0.01
934,0.005
935,0.005
936,0.01
937,0.015
938,0
939,-0.005
940,-0.02
941,-0.025
942,-0.025
943,-0.015
944,0
945,0.005
946,0.015
947,0.02
948,0
949,-0.015
950,-0.02
951,-0.03
952,-0.025
953,-0.005
954,-0.005
955,0
956,0.01
957,0.015
958,0.005
959,-0.01
960,-0.015
961,-0.02
962,-0.015
963,-0.005
964,-0.005
965,-0.005
966,-0.01
967,-0.01
968,-0.01
969,-0.015
970,-0.025
971,-0.025
972,-0.02
973,-0.01
974,-0.01
975,-0.005
976,-0.005
977,-0.01
978,-0.025
979,-0.025
980,-0.025
981,-0.035
982,-0.03
983,-0.02
984,-0.01
985,-0.005
986,-0.01
987,-0.015
988,-0.025
989,-0.03
990,-0.035
991,-0.04
992,-0.025
993,-0.02
994,-0.015
995,-0.005
996,0
997,-0.01
998,-0.025
999,-0.03
1000,-0.045
1001,-0.045
1002,-0.045
1003,-0.035
1004,-0.04
1005,-0.025
1006,-0.01
1007,-0.025
1008,-0.04
1009,-0.04
1010,-0.03
1011,-0.035
1012,-0.04
1013,-0.025
1014,-0.02
1015,-0.015
1016,-0.005
1017,-0.01
1018,-0.025
1019,-0.04
1020,-0.045
1021,-0.04
1022,-0.02
1023,-0.015
1024,-0.01
1025,0
1026,-0.005
1027,-0.01
1028,-0.01
1029,-0.015
1030,0
1031,0.01
1032,0.025
1033,0.065
1034,0.07
1035,0.085
1036,0.1
1037,0.1
1038,0.09
1039,0.09
1040,0.095
1041,0.085
1042,0.1
1043,0.105
1044,0.11
1045,0.12
1046,0.125
1047,0.13
1048,0.145
1049,0.155
1050,0.145
1051,0.135
1052,0.15
1053,0.165
1054,0.18
1055,0.185
1056,0.175
1057,0.17
1058,0.165
1059,0.175
1060,0.17
1061,0.16
1062,0.17
1063,0.17
1064,0.17
1065,0.165
1066,0.16
1067,0.15
1068,0.135
1069,0.115
1070,0.115
1071,0.105
1072,0.11
1073,0.12
1074,0.125
1075,0.13
1076,0.14
1077,0.125
1078,0.125
1079,0.12
1080,0.11
1081,0.095
1082,0.095
1083,0.095
1084,0.105
1085,0.115
1086,0.12
1087,0.105
1088,0.095
1089,0.08
1090,0.075
1091,0.075
1092,0.09
1093,0.11
1094,0.115
1095,0.12
1096,0.125
1097,0.095
1098,0.08
1099,0.07
1100,0.06
1101,0.085
1102,0.1
1103,0.1
1104,0.105
1105,0.115
1106,0.105
1107,0.095
1108,0.085
1109,0.075
1110,0.07
1111,0.08
1112,0.075
1113,0.08
1114,0.09
1115,0.08
1116,0.09
1117,0.055
1118,0.045
1119,0.02
1120,0.02
1121,0.04
1122,0.07
1123,0.115
1124,0.175
1125,0.235
1126,0.28
1127,0.325
1128,0.385
1129,0.445
1130,0.555
1131,0.68
1132,0.82
1133,0.89
1134,0.86
1135,0.84
1136,0.775
1137,0.695
1138,0.595
1139,0.505
1140,0.395
1141,0.265
1142,0.155
1143,0.05
1144,0.01
1145,0.035
1146,0.04
1147,0.04
1148,0.055
1149,0.06
1150,0.075
1151,0.095
1152,0.12
1153,0.13
1154,0.125
1155,0.13
1156,0.12
1157,0.105
1158,0.09
1159,0.085
1160,0.09
1161,0.105
1162,0.11
1163,0.11
1164,0.12
1165,0.13
1166,0.125
1167,0.11
1168,0.09
1169,0.075
1170,0.08
1171,0.095
1172,0.115
1173,0.115
1174,0.115
1175,0.14
1176,0.11
1177,0.1
1178,0.095
1179,0.085
1180,0.1
1181,0.12
1182,0.13
1183,0.135
1184,0.14
1185,0.145
1186,0.13
1187,0.115
1188,0.11
1189,0.105
1190,0.11
1191,0.13
1192,0.14
1193,0.15
1194,0.155
1195,0.165
1196,0.135
1197,0.115
1198,0.11
1199,0.115
1200,0.11
1201,0.13
1202,0.135
1203,0.14
1204,0.155
1205,0.165
1206,0.16
1207,0.15
1208,0.145
1209,0.145
1210,0.135
1211,0.14
1212,0.165
1213,0.17
1214,0.175
1215,0.17
1216,0.17
1217,0.165
1218,0.175
1219,0.16
1220,0.165
1221,0.18
1222,0.21
1223,0.215
1224,0.225
1225,0.225
1226,0.215
1227,0.21
1228,0.22
1229,0.2
1230,0.225
1231,0.25
1232,0.255
1233,0.26
1234,0.27
1235,0.27
1236,0.27
1237,0.265
1238,0.265
1239,0.25
1240,0.265
1241,0.265
1242,0.28
1243,0.295
1244,0.295
1245,0.29
1246,0.29
1247,0.285
1248,0.28
1249,0.26
1250,0.26
1251,0.255
1252,0.26
1253,0.26
1254,0.27
1255,0.26
1256,0.235
1257,0.22
1258,0.19
1259,0.17
1260,0.17
1261,0.15
1262,0.155
1263,0.16
1264,0.15
1265,0.13
1266,0.12
1267,0.095
1268,0.095
1269,0.075
1270,0.08
1271,0.075
1272,0.075
1273,0.065
1274,0.065
1275,0.035
1276,0.03
1277,0.02
1278,0.015
1279,-0.005
1280,0
1281,0.01
1282,0.01
1283,0.01
1284,0.03
1285,0.015
1286,0.005
1287,-0.01
1288,-0.02
1289,-0.03
1290,-0.02
1291,-0.015
1292,-0.01
1293,-0.005
1294,0.01
1295,-0.01
1296,-0.005
1297,-0.025
1298,-0.055
1299,-0.04
1300,-0.035
1301,-0.01
1302,0
1303,0.005
1304,0.005
1305,-0.005
1306,-0.03
1307,-0.035
1308,-0.04
1309,-0.03
1310,-0.035
1311,-0.03
1312,-0.02
1313,-0.015
1314,-0.01
1315,-0.025
1316,-0.035
1317,-0.055
1318,-0.055
1319,-0.05
1320,-0.04
1321,-0.025
1322,-0.015
1323,-0.02
1324,-0.01
1325,-0.025
1326,-0.03
1327,-0.035
1328,-0.05
1329,-0.055
1330,-0.04
1331,-0.04
1332,-0.02
1333,-0.015
1334,-0.02
1335,-0.03
1336,-0.045
1337,-0.05
1338,-0.055
1339,-0.055
1340,-0.05
1341,-0.02
1342,-0.025
1343,-0.025
1344,-0.015
1345,-0.035
1346,-0.04
1347,-0.04
1348,-0.04
1349,-0.04
1350,-0.025
1351,-0.035
1352,-0.03
1353,-0.025
1354,-0.03
1355,-0.045
1356,-0.06
1357,-0.06
1358,-0.065
1359,-0.06
1360,-0.04
1361,-0.03
1362,-0.035
1363,-0.03
1364,-0.025
1365,-0.045
1366,-0.045
1367,-0.065
1368,-0.07
1369,-0.065
1370,-0.055
1371,-0.05
1372,-0.035
1373,-0.03
1374,-0.03
1375,-0.045
1376,-0.06
1377,-0.065
1378,-0.075
1379,-0.07
1380,-0.05
1381,-0.05
1382,-0.04
1383,-0.03
1384,-0.04
1385,-0.045
1386,-0.06
1387,-0.06
1388,-0.065
1389,-0.075
1390,-0.07
1391,-0.06
1392,-0.055
1393,-0.045
1394,-0.05
1395,-0.055
1396,-0.065
1397,-0.065
1398,-0.08
1399,-0.065
1400,-0.055
1401,-0.04
1402,-0.04
1403,-0.03
1404,-0.035
1405,-0.05
1406,-0.075
1407,-0.075
1408,-0.095
1409,-0.09
1410,-0.065
1411,-0.055
1412,-0.045
1413,-0.045
1414,-0.055
1415,-0.07
1416,-0.08
1417,-0.075
1418,-0.075
1419,-0.065
1420,-0.06
1421,-0.055
1422,-0.045
1423,-0.04
1424,-0.04
1425,-0.055
1426,-0.075
1427,-0.075
1428,-0.08
1429,-0.065
1430,-0.06
1431,-0.055
1432,-0.06
1433,-0.045
1434,-0.065
1435,-0.075
1436,-0.085
1437,-0.09
1438,-0.09
1439,-0.075
1440,-0.055
1441,-0.03
1442,-0.025
1443,-0.045
1444,-0.065
1445,-0.075
1446,-0.085
1447,-0.09
1448,-0.1
1449,-0.085
1450,-0.07
1451,-0.06
1452,-0.045
1453,-0.04
1454,-0.06
1455,-0.07
1456,-0.075
1457,-0.085
1458,-0.085
1459,-0.07
1460,-0.06
1461,-0.06
1462,-0.055
1463,-0.05
1464,-0.065
1465,-0.075
1466,-0.075
1467,-0.08
1468,-0.07
1469,-0.06
1470,-0.055
1471,-0.055
1472,-0.045
1473,-0.04
1474,-0.065
1475,-0.08
1476,-0.09
1477,-0.07
1478,-0.08
1479,-0.07
1480,-0.05
1481,-0.045
1482,-0.05
1483,-0.045
1484,-0.055
1485,-0.07
1486,-0.075
1487,-0.07
1488,-0.065
1489,-0.06
1490,-0.055
1491,-0.055
1492,-0.04
1493,-0.045
1494,-0.06
1495,-0.055
1496,-0.05
1497,-0.065
1498,-0.055
1499,-0.04
1500,-0.035
1501,-0.015
1502,-0.02
1503,-0.03
1504,-0.035
1505,-0.05
1506,-0.05
1507,-0.05
1508,-0.05
1509,-0.04
1510,-0.02
1511,0.005
1512,0.01
1513,0.015
1514,0
1515,0
1516,-0.015
1517,-0.02
1518,-0.02
1519,-0.02
1520,-0.005
1521,0.01
1522,0.045
1523,0.025
1524,0.005
1525,0
1526,-0.025
1527,-0.045
1528,-0.04
1529,-0.025
1530,-0.025
1531,-0.03
1532,-0.03
1533,-0.05
1534,-0.06
1535,-0.075
1536,-0.085
1537,-0.09
1538,-0.09
1539,-0.07
1540,-0.07
1541,-0.055
1542,-0.045
1543,-0.055
1544,-0.07
1545,-0.08
1546,-0.08
1547,-0.09
1548,-0.09
1549,-0.08
1550,-0.06
1551,-0.06
1552,-0.06
1553,-0.08
1554,-0.08
1555,-0.085
1556,-0.105
1557,-0.11
1558,-0.1
1559,-0.08
1560,-0.075
1561,-0.065
1562,-0.055
1563,-0.07
1564,-0.085
1565,-0.1
1566,-0.11
1567,-0.105
1568,-0.09
1569,-0.085
1570,-0.08
1571,-0.075
1572,-0.05
1573,-0.08
1574,-0.085
1575,-0.09
1576,-0.11
1577,-0.12
1578,-0.105
1579,-0.095
1580,-0.1
1581,-0.1
1582,-0.105
1583,-0.125
1584,-0.13
1585,-0.125
1586,-0.125
1587,-0.09
1588,-0.02
1589,0.045
1590,0.095
1591,0.155
1592,0.235
1593,0.275
1594,0.36
1595,0.46
1596,0.59
1597,0.67
1598,0.675
1599,0.675
1600,0.62
1601,0.575
1602,0.465
1603,0.38
1604,0.27
1605,0.135
1606,-0.01
1607,-0.13
1608,-0.18
1609,-0.185
1610,-0.15
1611,-0.135
1612,-0.11
1613,-0.085
1614,-0.07
1615,-0.07
1616,-0.075
1617,-0.06
1618,-0.05
1619,-0.05
1620,-0.035
1621,-0.03
1622,-0.035
1623,-0.05
1624,-0.06
1625,-0.06
1626,-0.06
1627,-0.065
1628,-0.05
1629,-0.04
1630,-0.03
1631,-0.04
1632,-0.03
1633,-0.045
1634,-0.065
1635,-0.06
1636,-0.065
1637,-0.04
1638,-0.04
1639,-0.02
1640,-0.01
1641,-0.015
1642,-0.015
1643,-0.03
1644,-0.045
1645,-0.04
1646,-0.055
1647,-0.045
1648,-0.03
1649,-0.01
1650,0.005
1651,0.01
1652,0
1653,-0.025
1654,-0.03
1655,-0.035
1656,-0.065
1657,-0.04
1658,-0.015
1659,-0.015
1660,-0.005
1661,0.015
1662,0.01
1663,0.005
1664,-0.005
1665,-0.01
1666,-0.015
1667,0
1668,-0.005
1669,0
1670,0.01
1671,0.025
1672,0.03
1673,0.015
1674,0.015
1675,0
1676,0.01
1677,0.01
1678,0.03
1679,0.045
1680,0.055
1681,0.065
1682,0.07
1683,0.065
1684,0.06
1685,0.05
1686,0.065
1687,0.07
1688,0.1
1689,0.11
1690,0.115
1691,0.13
1692,0.13
1693,0.12
1694,0.115
1695,0.115
1696,0.125
1697,0.14
1698,0.155
1699,0.17
1700,0.165
1701,0.175
1702,0.165
1703,0.17
1704,0.185
1705,0.18
1706,0.175
1707,0.195
1708,0.2
1709,0.21
1710,0.195
1711,0.215
1712,0.195
1713,0.195
1714,0.19
1715,0.17
1716,0.165
1717,0.17
1718,0.185
1719,0.17
1720,0.175
1721,0.17
1722,0.175
1723,0.13
1724,0.125
1725,0.12
1726,0.105
1727,0.105
1728,0.11
1729,0.105
1730,0.1
1731,0.09
1732,0.075
1733,0.065
1734,0.045
1735,0.025
1736,0.005
1737,0.005
1738,-0.005
1739,0.005
1740,0.005
1741,0
1742,-0.015
1743,-0.025
1744,-0.03
1745,-0.045
1746,-0.05
1747,-0.05
1748,-0.035
1749,-0.035
1750,-0.02
1751,-0.02
1752,-0.035
1753,-0.04
1754,-0.055
1755,-0.055
1756,-0.045
1757,-0.04
1758,-0.045
1759,-0.05
1760,-0.055
1761,-0.055
1762,-0.075
1763,-0.075
1764,-0.07
1765,-0.075
1766,-0.075
1767,-0.06
1768,-0.055
1769,-0.055
1770,-0.05
1771,-0.045
1772,-0.05
1773,-0.06
1774,-0.065
1775,-0.08
1776,-0.07
1777,-0.06
1778,-0.055
1779,-0.035
1780,-0.02
1781,-0.025
1782,-0.045
1783,-0.07
1784,-0.07
1785,-0.075
1786,-0.055
1787,-0.045
1788,-0.02
1789,-0.035
1790,-0.025
1791,-0.025
1792,-0.04
1793,-0.055
1794,-0.065
1795,-0.07
1796,-0.065
1797,-0.045
1798,-0.04
1799,-0.04
1800,-0.025
1801,-0.01
1802,-0.035
1803,-0.045
1804,-0.05
1805,-0.065
1806,-0.065
1807,-0.05
1808,-0.035
1809,-0.035
1810,-0.02
1811,-0.015
1812,-0.03
1813,-0.035
1814,-0.045
1815,-0.05
1816,-0.05
1817,-0.03
1818,-0.03
1819,-0.03
1820,-0.025
1821,-0.01
1822,-0.04
1823,-0.035
1824,-0.04
1825,-0.05
1826,-0.035
1827,-0.035
1828,-0.015
1829,-0.025
1830,-0.015
1831,-0.015
1832,-0.025
1833,-0.04
1834,-0.04
1835,-0.05
1836,-0.055
1837,-0.04
1838,-0.03
1839,-0.025
1840,-0.025
1841,-0.03
1842,-0.035
1843,-0.06
1844,-0.06
1845,-0.07
1846,-0.06
1847,-0.035
1848,-0.03
1849,-0.01
1850,-0.025
1851,-0.025
1852,-0.04
1853,-0.055
1854,-0.07
1855,-0.075
1856,-0.04
1857,-0.045
1858,-0.04
1859,-0.045
1860,-0.03
1861,-0.035
1862,-0.05
1863,-0.055
1864,-0.065
1865,-0.07
1866,-0.065
1867,-0.06
1868,-0.05
1869,-0.04
1870,-0.03
1871,-0.045
1872,-0.055
1873,-0.05
1874,-0.06
1875,-0.07
1876,-0.045
1877,-0.04
1878,-0.03
1879,-0.025
1880,-0.04
1881,-0.04
1882,-0.055
1883,-0.055
1884,-0.065
1885,-0.065
1886,-0.065
1887,-0.06
1888,-0.025
1889,-0.03
1890,-0.015
1891,-0.04
1892,-0.06
1893,-0.065
1894,-0.07
1895,-0.075
1896,-0.06
1897,-0.05
1898,-0.025
1899,-0.025
1900,-0.025
1901,-0.03
1902,-0.045
1903,-0.055
1904,-0.06
1905,-0.08
1906,-0.075
1907,-0.07
1908,-0.06
1909,-0.035
1910,-0.035
1911,-0.055
1912,-0.055
1913,-0.065
1914,-0.075
1915,-0.075
1916,-0.065
1917,-0.045
1918,-0.035
1919,-0.025
1920,-0.035
1921,-0.035
1922,-0.04
1923,-0.045
1924,-0.06
1925,-0.06
1926,-0.04
1927,-0.035
1928,-0.03
1929,-0.02
1930,-0.015
1931,-0.03
1932,-0.035
1933,-0.04
1934,-0.05
1935,-0.045
1936,-0.05
1937,-0.025
1938,0.005
1939,0.01
1940,0.02
1941,0.03
1942,0.035
1943,0.03
1944,0.035
1945,0.025
1946,0.04
1947,0.045
1948,0.055
1949,0.065
1950,0.075
1951,0.065
1952,0.055
1953,0.045
1954,0.04
1955,0.055
1956,0.065
1957,0.09
1958,0.105
1959,0.125
1960,0.13
1961,0.095
1962,0.09
1963,0.1
1964,0.09
1965,0.095
1966,0.1
1967,0.11
1968,0.125
1969,0.135
1970,0.145
1971,0.145
1972,0.13
1973,0.135
1974,0.12
1975,0.125
1976,0.125
1977,0.135
1978,0.145
1979,0.155
1980,0.17
1981,0.16
1982,0.165
1983,0.165
1984,0.155
1985,0.155
1986,0.16
1987,0.155
1988,0.165
1989,0.18
1990,0.165
1991,0.16
1992,0.16
1993,0.16
1994,0.14
1995,0.13
1996,0.14
1997,0.14
1998,0.135
1999,0.135
2000,0.13
2001,0.11
2002,0.11
2003,0.095
2004,0.09
2005,0.095
2006,0.105
2007,0.12
2008,0.125
2009,0.12
2010,0.11
2011,0.105
2012,0.09
2013,0.085
2014,0.07
2015,0.085
2016,0.105
2017,0.1
2018,0.105
2019,0.1
2020,0.095
2021,0.08
2022,0.07
2023,0.075
2024,0.055
2025,0.07
2026,0.07
2027,0.08
2028,0.085
2029,0.1
2030,0.085
2031,0.065
2032,0.06
2033,0.05
2034,0.05
2035,0.055
2036,0.07
2037,0.08
2038,0.085
2039,0.085
2040,0.07
2041,0.065
2042,0.065
2043,0.045
2044,0.065
2045,0.065
2046,0.065
2047,0.07
2048,0.06
2049,0.07
2050,0.06
2051,0.035
2052,0.03
2053,0.04
2054,0.055
2055,0.085
2056,0.13
2057,0.185
2058,0.235
2059,0.29
2060,0.33
2061,0.395
2062,0.5
2063,0.605
2064,0.705
2065,0.755
2066,0.755
2067,0.74
2068,0.695
2069,0.615
2070,0.515
2071,0.43
2072,0.325
2073,0.19
2074,0.07
2075,-0.015
2076,-0.045
2077,-0.04
2078,-0.02
2079,0.015
2080,0.025
2081,0.025
2082,0.04
2083,0.06
2084,0.085
2085,0.09
2086,0.1
2087,0.12
2088,0.11
2089,0.09
2090,0.075
2091,0.07
2092,0.065
2093,0.07
2094,0.07
2095,0.085
2096,0.09
2097,0.105
2098,0.105
2099,0.11
2100,0.095
2101,0.095
2102,0.085
2103,0.085
2104,0.085
2105,0.1
2106,0.11
2107,0.12
2108,0.13
2109,0.11
2110,0.09
2111,0.075
2112,0.07
2113,0.07
2114,0.075
2115,0.095
2116,0.115
2117,0.125
2118,0.13
2119,0.125
2120,0.115
2121,0.105
2122,0.1
2123,0.105
2124,0.11
2125,0.12
2126,0.125
2127,0.125
2128,0.13
2129,0.13
2130,0.105
2131,0.105
2132,0.12
2133,0.105
2134,0.11
2135,0.12
2136,0.13
2137,0.145
2138,0.165
2139,0.15
2140,0.14
2141,0.13
2142,0.125
2143,0.13
2144,0.13
2145,0.14
2146,0.14
2147,0.145
2148,0.165
2149,0.17
2150,0.16
2151,0.16
2152,0.165
2153,0.16
2154,0.185
2155,0.18
2156,0.195
2157,0.2
2158,0.21
2159,0.205
2160,0.2
2161,0.2
2162,0.2
2163,0.2
2164,0.215
2165,0.225
2166,0.25
2167,0.26
2168,0.27
2169,0.255
2170,0.255
2171,0.26
2172,0.26
2173,0.245
2174,0.26
2175,0.27
2176,0.265
2177,0.27
2178,0.255
2179,0.265
2180,0.26
2181,0.245
2182,0.24
2183,0.235
2184,0.24
2185,0.255
2186,0.235
2187,0.24
2188,0.24
2189,0.22
2190,0.2
2191,0.18
2192,0.165
2193,0.15
2194,0.155
2195,0.155
2196,0.15
2197,0.135
2198,0.12
2199,0.09
2200,0.085
2201,0.07
2202,0.05
2203,0.04
2204,0.045
2205,0.045
2206,0.04
2207,0.05
2208,0.045
2209,0.03
2210,0.01
2211,-0.005
2212,-0.015
2213,-0.025
2214,-0.015
2215,-0.01
2216,0
2217,0.005
2218,0.005
2219,-0.02
2220,-0.03
2221,-0.045
2222,-0.06
2223,-0.04
2224,-0.04
2225,-0.02
2226,-0.015
2227,-0.015
2228,-0.01
2229,-0.02
2230,-0.05
2231,-0.055
2232,-0.075
2233,-0.06
2234,-0.055
2235,-0.035
2236,-0.03
2237,-0.03
2238,-0.025
2239,-0.04
2240,-0.06
2241,-0.055
2242,-0.055
2243,-0.065
2244,-0.06
2245,-0.05
2246,-0.03
2247,-0.02
2248,-0.02
2249,-0.03
2250,-0.04
2251,-0.05
2252,-0.065
2253,-0.07
2254,-0.055
2255,-0.035
2256,-0.025
2257,-0.02
2258,-0.015
2259,-0.03
2260,-0.045
2261,-0.045
2262,-0.05
2263,-0.04
2264,-0.025
2265,-0.015
2266,-0.015
2267,0
2268,-0.01
2269,-0.035
2270,-0.055
2271,-0.04
2272,-0.065
2273,-0.04
2274,-0.05
2275,-0.035
2276,-0.01
2277,0.005
2278,-0.02
2279,-0.04
2280,-0.04
2281,-0.04
2282,-0.065
2283,-0.045
2284,-0.035
2285,-0.025
2286,-0.025
2287,-0.01
2288,-0.015
2289,-0.035
2290,-0.035
2291,-0.045
2292,-0.05
2293,-0.05
2294,-0.04
2295,-0.04
2296,-0.045
2297,-0.025
2298,-0.04
2299,-0.045
2300,-0.055
2301,-0.07
2302,-0.07
2303,-0.06
2304,-0.045
2305,-0.035
2306,-0.03
2307,-0.025
2308,-0.025
2309,-0.035
2310,-0.05
2311,-0.075
2312,-0.1
2313,-0.07
2314,-0.05
2315,-0.05
2316,-0.04
2317,-0.035
2318,-0.04
2319,-0.05
2320,-0.06
2321,-0.075
2322,-0.07
2323,-0.05
2324,-0.05
2325,-0.05
2326,-0.04
2327,-0.035
2328,-0.045
2329,-0.06
2330,-0.07
2331,-0.075
2332,-0.08
2333,-0.075
2334,-0.04
2335,-0.045
2336,-0.04
2337,-0.035
2338,-0.055
2339,-0.055
2340,-0.065
2341,-0.075
2342,-0.075
2343,-0.06
2344,-0.065
2345,-0.06
2346,-0.055
2347,-0.045
2348,-0.045
2349,-0.06
2350,-0.08
2351,-0.07
2352,-0.075
2353,-0.06
2354,-0.055
2355,-0.065
2356,-0.045
2357,-0.045
2358,-0.05
2359,-0.065
2360,-0.065
2361,-0.075
2362,-0.08
2363,-0.065
2364,-0.055
2365,-0.05
2366,-0.05
2367,-0.04
2368,-0.06
2369,-0.065
2370,-0.075
2371,-0.085
2372,-0.08
2373,-0.065
2374,-0.06
2375,-0.055
2376,-0.05
2377,-0.035
2378,-0.065
2379,-0.07
2380,-0.055
2381,-0.085
2382,-0.07
2383,-0.065
2384,-0.045
2385,-0.06
2386,-0.05
2387,-0.045
2388,-0.07
2389,-0.08
2390,-0.075
2391,-0.085
2392,-0.09
2393,-0.07
2394,-0.05
2395,-0.055
2396,-0.045
2397,-0.04
2398,-0.05
2399,-0.075
2400,-0.075
2401,-0.09
2402,-0.09
2403,-0.075
2404,-0.07
2405,-0.06
2406,-0.045
2407,-0.05
2408,-0.065
2409,-0.08
2410,-0.075
2411,-0.075
2412,-0.065
2413,-0.065
2414,-0.065
2415,-0.065
2416,-0.05
2417,-0.065
2418,-0.075
2419,-0.075
2420,-0.075
2421,-0.085
2422,-0.075
2423,-0.06
2424,-0.04
2425,-0.04
2426,-0.03
2427,-0.03
2428,-0.045
2429,-0.055
2430,-0.055
2431,-0.05
2432,-0.045
2433,-0.04
2434,-0.035
2435,-0.015
2436,0
2437,-0.005
2438,-0.015
2439,-0.02
2440,-0.02
2441,-0.015
2442,0
2443,-0.01
2444,0.005
2445,0.01
2446,0.01
2447,-0.005
2448,-0.01
2449,-0.015
2450,-0.015
2451,-0.025
2452,-0.02
2453,-0.01
2454,0.01
2455,0
2456,-0.005
2457,-0.03
2458,-0.045
2459,-0.06
2460,-0.065
2461,-0.08
2462,-0.08
2463,-0.07
2464,-0.065
2465,-0.05
2466,-0.045
2467,-0.06
2468,-0.065
2469,-0.075
2470,-0.09
2471,-0.105
2472,-0.085
2473,-0.065
2474,-0.065
2475,-0.07
2476,-0.055
2477,-0.06
2478,-0.075
2479,-0.095
2480,-0.105
2481,-0.12
2482,-0.11
2483,-0.075
2484,-0.08
2485,-0.07
2486,-0.06
2487,-0.08
2488,-0.095
2489,-0.11
2490,-0.1
2491,-0.09
2492,-0.095
2493,-0.085
2494,-0.075
2495,-0.075
2496,-0.065
2497,-0.08
2498,-0.1
2499,-0.1
2500,-0.1
2501,-0.1
2502,-0.09
2503,-0.09
2504,-0.08
2505,-0.095
2506,-0.09
2507,-0.1
2508,-0.105
2509,-0.125
2510,-0.145
2511,-0.145
2512,-0.115
2513,-0.075
2514,-0.02
2515,0.035
2516,0.09
2517,0.12
2518,0.18
2519,0.245
2520,0.325
2521,0.425
2522,0.555
2523,0.64
2524,0.65
2525,0.645
2526,0.595
2527,0.52
2528,0.425
2529,0.335
2530,0.245
2531,0.13
2532,0.02
2533,-0.09
2534,-0.165
2535,-0.17
2536,-0.145
2537,-0.125
2538,-0.125
2539,-0.115
2540,-0.105
2541,-0.095
2542,-0.07
2543,-0.06
2544,-0.04
2545,-0.04
2546,-0.035
2547,-0.055
2548,-0.07
2549,-0.085
2550,-0.085
2551,-0.08
2552,-0.065
2553,-0.05
2554,-0.035
2555,-0.025
2556,-0.025
2557,-0.03
2558,-0.025
2559,-0.06
2560,-0.075
2561,-0.07
2562,-0.06
2563,-0.05
2564,-0.05
2565,-0.03
2566,-0.03
2567,-0.04
2568,-0.05
2569,-0.05
2570,-0.06
2571,-0.05
2572,-0.045
2573,-0.03
2574,-0.015
2575,-0.01
2576,-0.03
2577,-0.035
2578,-0.035
2579,-0.04
2580,-0.04
2581,-0.03
2582,-0.015
2583,-0.01
2584,-0.005
2585,0.01
2586,0.005
2587,-0.02
2588,-0.03
2589,-0.04
2590,-0.045
2591,-0.045
2592,-0.02
2593,-0.01
2594,0.005
2595,0.02
2596,0.015
2597,0
2598,-0.005
2599,-0.015
2600,-0.01
2601,0.005
2602,0.015
2603,0.02
2604,0.03
2605,0.05
2606,0.035
2607,0.02
2608,0.025
2609,0.03
2610,0.03
2611,0.05
2612,0.06
2613,0.08
2614,0.085
2615,0.11
2616,0.1
2617,0.08
2618,0.075
2619,0.07
2620,0.08
2621,0.095
2622,0.115
2623,0.125
2624,0.15
2625,0.16
2626,0.16
2627,0.16
2628,0.145
2629,0.145
2630,0.135
2631,0.16
2632,0.175
2633,0.185
2634,0.19
2635,0.195
2636,0.19
2637,0.185
2638,0.175
2639,0.17
2640,0.165
2641,0.18
2642,0.175
2643,0.175
2644,0.17
2645,0.175
2646,0.155
2647,0.145
2648,0.13
2649,0.115
2650,0.105
2651,0.11
2652,0.115
2653,0.11
2654,0.11
2655,0.105
2656,0.08
2657,0.065
2658,0.045
2659,0.015
2660,0.01
2661,0.015
2662,0.015
2663,0.015
2664,0
2665,0.015
2666,0.015
2667,-0.02
2668,-0.035
2669,-0.045
2670,-0.04
2671,-0.04
2672,-0.035
2673,-0.04
2674,-0.025
2675,-0.02
2676,-0.045
2677,-0.05
2678,-0.065
2679,-0.07
2680,-0.065
2681,-0.045
2682,-0.045
2683,-0.055
2684,-0.045
2685,-0.045
2686,-0.055
2687,-0.07
2688,-0.08
2689,-0.085
2690,-0.085
2691,-0.085
2692,-0.06
2693,-0.065
2694,-0.045
2695,-0.05
2696,-0.06
2697,-0.075
2698,-0.09
2699,-0.085
2700,-0.07
2701,-0.065
2702,-0.06
2703,-0.04
2704,-0.045
2705,-0.05
2706,-0.055
2707,-0.06
2708,-0.07
2709,-0.08
2710,-0.075
2711,-0.06
2712,-0.065
2713,-0.05
2714,-0.03
2715,-0.04
2716,-0.055
2717,-0.055
2718,-0.055
2719,-0.06
2720,-0.06
2721,-0.045
2722,-0.025
2723,-0.02
2724,-0.01
2725,-0.025
2726,-0.055
2727,-0.06
2728,-0.065
2729,-0.065
2730,-0.055
2731,-0.045
2732,-0.035
2733,-0.025
2734,-0.025
2735,-0.035
2736,-0.05
2737,-0.045
2738,-0.05
2739,-0.055
2740,-0.05
2741,-0.04
2742,-0.025
2743,-0.02
2744,-0.015
2745,-0.02
2746,-0.035
2747,-0.035
2748,-0.045
2749,-0.055
2750,-0.045
2751,-0.035
2752,-0.035
2753,-0.03
2754,-0.025
2755,-0.03
2756,-0.045
2757,-0.04
2758,-0.05
2759,-0.055
2760,-0.06
2761,-0.04
2762,-0.03
2763,-0.03
2764,-0.03
2765,-0.05
2766,-0.055
2767,-0.06
2768,-0.06
2769,-0.07
2770,-0.06
2771,-0.05
2772,-0.045
2773,-0.04
2774,-0.03
2775,-0.04
2776,-0.06
2777,-0.06
2778,-0.065
2779,-0.07
2780,-0.065
2781,-0.055
2782,-0.045
2783,-0.045
2784,-0.045
2785,-0.055
2786,-0.05
2787,-0.055
2788,-0.07
2789,-0.07
2790,-0.065
2791,-0.06
2792,-0.045
2793,-0.04
2794,-0.05
2795,-0.055
2796,-0.05
2797,-0.06
2798,-0.07
2799,-0.07
2800,-0.06
2801,-0.055
2802,-0.055
2803,-0.045
2804,-0.055
2805,-0.065
2806,-0.07
2807,-0.065
2808,-0.075
2809,-0.085
2810,-0.07
2811,-0.06
2812,-0.05
2813,-0.05
2814,-0.045
2815,-0.055
2816,-0.065
2817,-0.055
2818,-0.065
2819,-0.07
2820,-0.055
2821,-0.055
2822,-0.06
2823,-0.04
2824,-0.03
2825,-0.05
2826,-0.065
2827,-0.085
2828,-0.065
2829,-0.07
2830,-0.06
2831,-0.04
2832,-0.045
2833,-0.045
2834,-0.04
2835,-0.055
2836,-0.065
2837,-0.08
2838,-0.09
2839,-0.08
2840,-0.065
2841,-0.05
2842,-0.05
2843,-0.05
2844,-0.055
2845,-0.07
2846,-0.06
2847,-0.065
2848,-0.065
2849,-0.08
2850,-0.065
2851,-0.055
2852,-0.045
2853,-0.045
2854,-0.045
2855,-0.055
2856,-0.065
2857,-0.065
2858,-0.075
2859,-0.075
2860,-0.065
2861,-0.04
2862,-0.04
2863,-0.035
2864,-0.04
2865,-0.045
2866,-0.06
2867,-0.055
2868,-0.075
2869,-0.07
2870,-0.055
2871,-0.035
2872,-0.045
2873,-0.045
2874,-0.055
2875,-0.065
2876,-0.07
2877,-0.075
2878,-0.09
2879,-0.07
2880,-0.055
2881,-0.05
2882,-0.04
2883,-0.04
2884,-0.04
2885,-0.065
2886,-0.06
2887,-0.085
2888,-0.075
2889,-0.075
2890,-0.05
2891,-0.03
2892,-0.01
2893,0
2894,-0.015
2895,-0.025
2896,-0.04
2897,-0.05
2898,-0.045
2899,-0.035
2900,-0.02
2901,-0.01
2902,0
2903,0.02
2904,-0.01
2905,-0.02
2906,-0.01
2907,-0.01
2908,-0.015
2909,0
2910,0.025
2911,0.03
2912,0.04
2913,0.04
2914,0.05
2915,0.055
2916,0.07
2917,0.07
2918,0.075
2919,0.085
2920,0.105
2921,0.12
2922,0.13
2923,0.135
2924,0.115
2925,0.11
2926,0.1
2927,0.085
2928,0.08
2929,0.1
2930,0.1
2931,0.11
2932,0.105
2933,0.115
2934,0.105
2935,0.105
2936,0.09
2937,0.095
2938,0.08
2939,0.085
2940,0.105
2941,0.105
2942,0.12
2943,0.12
2944,0.11
2945,0.09
2946,0.09
2947,0.08
2948,0.065
2949,0.075
2950,0.09
2951,0.095
2952,0.095
2953,0.12
2954,0.1
2955,0.09
2956,0.1
2957,0.085
2958,0.07
2959,0.07
2960,0.085
2961,0.1
2962,0.1
2963,0.09
2964,0.1
2965,0.085
2966,0.085
2967,0.07
2968,0.07
2969,0.075
2970,0.075
2971,0.07
2972,0.085
2973,0.07
2974,0.07
2975,0.055
2976,0.045
2977,0.03
2978,0.03
2979,0.05
2980,0.08
2981,0.14
2982,0.215
2983,0.26
2984,0.305
2985,0.365
2986,0.415
2987,0.495
2988,0.595
2989,0.73
2990,0.85
2991,0.865
2992,0.86
2993,0.81
2994,0.73
2995,0.635
2996,0.545
2997,0.425
2998,0.315
2999,0.205
3000,0.09
3001,0.01
3002,0.01
3003,0.04
3004,0.03
3005,0.04
3006,0.05
3007,0.07
3008,0.09
3009,0.115
3010,0.12
3011,0.13
3012,0.13
3013,0.12
3014,0.11
3015,0.105
3016,0.095
3017,0.085
3018,0.09
3019,0.1
3020,0.105
3021,0.11
3022,0.125
3023,0.125
3024,0.11
3025,0.105
3026,0.105
3027,0.085
3028,0.09
3029,0.105
3030,0.105
3031,0.11
3032,0.115
3033,0.12
3034,0.105
3035,0.095
3036,0.095
3037,0.085
3038,0.095
3039,0.11
3040,0.12
3041,0.125
3042,0.135
3043,0.145
3044,0.13
3045,0.11
3046,0.105
3047,0.11
3048,0.115
3049,0.13
3050,0.125
3051,0.145
3052,0.16
3053,0.15
3054,0.135
3055,0.12
3056,0.12
3057,0.12
3058,0.12
3059,0.135
3060,0.145
3061,0.165
3062,0.175
3063,0.165
3064,0.16
3065,0.165
3066,0.165
3067,0.15
3068,0.145
3069,0.155
3070,0.155
3071,0.155
3072,0.16
3073,0.145
3074,0.165
3075,0.175
3076,0.165
3077,0.155
3078,0.175
3079,0.19
3080,0.2
3081,0.225
3082,0.22
3083,0.23
3084,0.23
3085,0.24
3086,0.23
3087,0.225
3088,0.245
3089,0.255
3090,0.26
3091,0.29
3092,0.285
3093,0.27
3094,0.265
3095,0.295
3096,0.315
3097,0.3
3098,0.3
3099,0.3
3100,0.31
3101,0.325
3102,0.32
3103,0.325
3104,0.315
3105,0.315
3106,0.305
3107,0.3
3108,0.305
3109,0.315
3110,0.31
3111,0.31
3112,0.305
3113,0.295
3114,0.285
3115,0.27
3116,0.24
3117,0.225
3118,0.22
3119,0.22
3120,0.22
3121,0.21
3122,0.195
3123,0.165
3124,0.15
3125,0.14
3126,0.135
3127,0.1
3128,0.1
3129,0.095
3130,0.12
3131,0.105
3132,0.1
3133,0.08
3134,0.05
3135,0.035
3136,0.025
3137,0.015
3138,0.005
3139,0.02
3140,0.02
3141,0.02
3142,0.03
3143,0.015
3144,-0.01
3145,-0.035
3146,-0.03
3147,-0.02
3148,-0.015
3149,-0.01
3150,0
3151,0.005
3152,0.005
3153,-0.02
3154,-0.03
3155,-0.045
3156,-0.04
3157,-0.035
3158,-0.03
3159,-0.03
3160,-0.015
3161,-0.015
3162,-0.01
3163,-0.035
3164,-0.045
3165,-0.045
3166,-0.055
3167,-0.055
3168,-0.03
3169,-0.025
3170,-0.025
3171,-0.03
3172,-0.04
3173,-0.055
3174,-0.065
3175,-0.07
3176,-0.075
3177,-0.07
3178,-0.055
3179,-0.035
3180,-0.03
3181,-0.025
3182,-0.04
3183,-0.055
3184,-0.07
3185,-0.09
3186,-0.085
3187,-0.065
3188,-0.06
3189,-0.045
3190,-0.045
3191,-0.03
3192,-0.04
3193,-0.055
3194,-0.06
3195,-0.06
3196,-0.07
3197,-0.055
3198,-0.05
3199,-0.035
3200,-0.03
3201,-0.025
3202,-0.03
3203,-0.045
3204,-0.05
3205,-0.06
3206,-0.065
3207,-0.055
3208,-0.045
3209,-0.035
3210,-0.035
3211,-0.03
3212,-0.05
3213,-0.05
3214,-0.045
3215,-0.05
3216,-0.055
3217,-0.04
3218,-0.03
3219,-0.045
3220,-0.04
3221,-0.055
3222,-0.075
3223,-0.095
3224,-0.1
3225,-0.095
3226,-0.09
3227,-0.08
3228,-0.08
3229,-0.05
3230,-0.045
3231,-0.05
3232,-0.05
3233,-0.07
3234,-0.08
3235,-0.085
3236,-0.095
3237,-0.075
3238,-0.065
3239,-0.05
3240,-0.045
3241,-0.05
3242,-0.055
3243,-0.075
3244,-0.08
3245,-0.09
3246,-0.09
3247,-0.08
3248,-0.08
3249,-0.075
3250,-0.075
3251,-0.06
3252,-0.075
3253,-0.09
3254,-0.09
3255,-0.085
3256,-0.095
3257,-0.095
3258,-0.08
3259,-0.085
3260,-0.09
3261,-0.08
3262,-0.085
3263,-0.1
3264,-0.13
3265,-0.115
3266,-0.115
3267,-0.095
3268,-0.09
3269,-0.09
3270,-0.08
3271,-0.08
3272,-0.085
3273,-0.08
3274,-0.105
3275,-0.115
3276,-0.115
3277,-0.11
3278,-0.095
3279,-0.09
3280,-0.08
3281,-0.08
3282,-0.085
3283,-0.095
3284,-0.1
3285,-0.115
3286,-0.12
3287,-0.11
3288,-0.115
3289,-0.095
3290,-0.08
3291,-0.08
3292,-0.085
3293,-0.1
3294,-0.115
3295,-0.105
3296,-0.115
3297,-0.11
3298,-0.115
3299,-0.1
3300,-0.1
3301,-0.095
3302,-0.095
3303,-0.11
3304,-0.11
3305,-0.12
3306,-0.105
3307,-0.085
3308,-0.09
3309,-0.08
3310,-0.095
3311,-0.095
3312,-0.1
3313,-0.125
3314,-0.12
3315,-0.125
3316,-0.1
3317,-0.09
3318,-0.105
3319,-0.105
3320,-0.085
3321,-0.08
3322,-0.09
3323,-0.11
3324,-0.1
3325,-0.105
3326,-0.12
3327,-0.1
3328,-0.095
3329,-0.085
3330,-0.085
3331,-0.085
3332,-0.095
3333,-0.11
3334,-0.11
3335,-0.115
3336,-0.11
3337,-0.075
3338,-0.07
3339,-0.065
3340,-0.055
3341,-0.045
3342,-0.07
3343,-0.08
3344,-0.08
3345,-0.08
3346,-0.085
3347,-0.08
3348,-0.07
3349,-0.07
3350,-0.055
3351,-0.045
3352,-0.055
3353,-0.065
3354,-0.065
3355,-0.065
3356,-0.045
3357,-0.05
3358,-0.025
3359,-0.04
3360,-0.01
3361,-0.035
3362,-0.04
3363,-0.05
3364,-0.055
3365,-0.065
3366,-0.055
3367,-0.045
3368,-0.045
3369,-0.05
3370,-0.035
3371,-0.075
3372,-0.095
3373,-0.095
3374,-0.1
3375,-0.115
3376,-0.125
3377,-0.11
3378,-0.08
3379,-0.105
3380,-0.11
3381,-0.115
3382,-0.115
3383,-0.11
3384,-0.11
3385,-0.13
3386,-0.12
3387,-0.1
3388,-0.12
3389,-0.095
3390,-0.095
3391,-0.11
3392,-0.11
3393,-0.115
3394,-0.125
3395,-0.135
3396,-0.135
3397,-0.115
3398,-0.11
3399,-0.115
3400,-0.105
3401,-0.125
3402,-0.135
3403,-0.13
3404,-0.13
3405,-0.135
3406,-0.13
3407,-0.11
3408,-0.105
3409,-0.1
3410,-0.11
3411,-0.115
3412,-0.135
3413,-0.135
3414,-0.135
3415,-0.135
3416,-0.155
3417,-0.145
3418,-0.13
3419,-0.13
3420,-0.14
3421,-0.16
3422,-0.185
3423,-0.175
3424,-0.165
3425,-0.125
3426,-0.06
3427,-0.005
3428,0.045
3429,0.105
3430,0.18
3431,0.245
3432,0.33
3433,0.435
3434,0.515
3435,0.555
3436,0.555
3437,0.525
3438,0.48
3439,0.415
3440,0.36
3441,0.255
3442,0.135
3443,-0.01
3444,-0.115
3445,-0.195
3446,-0.215
3447,-0.215
3448,-0.19
3449,-0.165
3450,-0.16
3451,-0.15
3452,-0.125
3453,-0.105
3454,-0.11
3455,-0.09
3456,-0.09
3457,-0.08
3458,-0.08
3459,-0.08
3460,-0.085
3461,-0.09
3462,-0.105
3463,-0.115
3464,-0.115
3465,-0.115
3466,-0.095
3467,-0.095
3468,-0.095
3469,-0.075
3470,-0.085
3471,-0.095
3472,-0.095
3473,-0.09
3474,-0.105
3475,-0.09
3476,-0.065
3477,-0.075
3478,-0.075
3479,-0.065
3480,-0.06
3481,-0.07
3482,-0.09
3483,-0.095
3484,-0.1
3485,-0.09
3486,-0.065
3487,-0.06
3488,-0.055
3489,-0.03
3490,-0.055
3491,-0.07
3492,-0.07
3493,-0.075
3494,-0.07
3495,-0.07
3496,-0.06
3497,-0.055
3498,-0.05
3499,-0.04
3500,-0.055
3501,-0.05
3502,-0.045
3503,-0.055
3504,-0.06
3505,-0.04
3506,-0.03
3507,-0.03
3508,-0.02
3509,-0.02
3510,-0.035
3511,-0.035
3512,-0.035
3513,-0.035
3514,-0.04
3515,-0.035
3516,-0.005
3517,0.02
3518,0.02
3519,0.02
3520,0.01
3521,0.015
3522,0.01
3523,0.01
3524,0.015
3525,0.02
3526,0.025
3527,0.02
3528,0.035
3529,0.055
3530,0.065
3531,0.055
3532,0.06
3533,0.06
3534,0.07
3535,0.1
3536,0.115
3537,0.115
3538,0.105
3539,0.125
3540,0.125
3541,0.115
3542,0.105
3543,0.115
3544,0.11
3545,0.125
3546,0.125
3547,0.13
3548,0.145
3549,0.15
3550,0.135
3551,0.13
3552,0.13
3553,0.115
3554,0.11
3555,0.13
3556,0.135
3557,0.135
3558,0.13
3559,0.13
3560,0.115
3561,0.085
3562,0.075
3563,0.065
3564,0.06
3565,0.055
3566,0.05
3567,0.03
3568,0.04
3569,0.03
3570,0.02
3571,-0.015
3572,-0.025
3573,-0.03
3574,-0.03
3575,-0.03
3576,-0.03
3577,-0.03
3578,-0.02
3579,-0.04
3580,-0.05
3581,-0.075
3582,-0.085
3583,-0.08
3584,-0.08
3585,-0.065
3586,-0.07
3587,-0.065
3588,-0.055
3589,-0.075
3590,-0.09
3591,-0.115
3592,-0.1
3593,-0.11
3594,-0.115
3595,-0.105
3596,-0.095
3597,-0.09
3598,-0.075
3599,-0.06
3600,-0.095
3601,-0.1
3602,-0.125
3603,-0.115
3604,-0.115
3605,-0.1
3606,-0.1
3607,-0.1
3608,-0.09
3609,-0.09
3610,-0.1
3611,-0.11
3612,-0.105
3613,-0.115
3614,-0.105
3615,-0.09
3616,-0.08
3617,-0.075
3618,-0.075
3619,-0.095
3620,-0.1
3621,-0.105
3622,-0.12
3623,-0.12
3624,-0.115
3625,-0.095
3626,-0.095
3627,-0.09
3628,-0.07
3629,-0.095
3630,-0.095
3631,-0.09
3632,-0.105
3633,-0.11
3634,-0.09
3635,-0.07
3636,-0.07
3637,-0.07
3638,-0.07
3639,-0.085
3640,-0.1
3641,-0.1
3642,-0.1
3643,-0.11
3644,-0.11
3645,-0.09
3646,-0.09
3647,-0.07
3648,-0.07
3649,-0.075
3650,-0.095
3651,-0.11
3652,-0.1
3653,-0.1
3654,-0.095
3655,-0.095
3656,-0.08
3657,-0.075
3658,-0.05
3659,-0.065
3660,-0.085
3661,-0.09
3662,-0.11
3663,-0.115
3664,-0.1
3665,-0.095
3666,-0.085
3667,-0.065
3668,-0.06
3669,-0.065
3670,-0.095
3671,-0.12
3672,-0.1
3673,-0.1
3674,-0.105
3675,-0.085
3676,-0.075
3677,-0.075
3678,-0.07
3679,-0.085
3680,-0.1
3681,-0.115
3682,-0.12
3683,-0.115
3684,-0.1
3685,-0.08
3686,-0.09
3687,-0.09
3688,-0.07
3689,-0.095
3690,-0.115
3691,-0.115
3692,-0.115
3693,-0.12
3694,-0.115
3695,-0.095
3696,-0.1
3697,-0.095
3698,-0.075
3699,-0.095
3700,-0.11
3701,-0.125
3702,-0.12
3703,-0.1
3704,-0.115
3705,-0.11
3706,-0.1
3707,-0.08
3708,-0.095
3709,-0.095
3710,-0.11
3711,-0.13
3712,-0.12
3713,-0.125
3714,-0.12
3715,-0.11
3716,-0.105
3717,-0.095
3718,-0.1
3719,-0.105
3720,-0.12
3721,-0.12
3722,-0.125
3723,-0.12
3724,-0.105
3725,-0.095
3726,-0.095
3727,-0.09
3728,-0.1
3729,-0.105
3730,-0.115
3731,-0.115
3732,-0.14
3733,-0.135
3734,-0.12
3735,-0.12
3736,-0.11
3737,-0.105
3738,-0.095
3739,-0.115
3740,-0.13
3741,-0.13
3742,-0.115
3743,-0.125
3744,-0.105
3745,-0.105
3746,-0.095
3747,-0.095
3748,-0.11
3749,-0.105
3750,-0.105
3751,-0.115
3752,-0.135
3753,-0.145
3754,-0.115
3755,-0.1
3756,-0.11
3757,-0.095
3758,-0.095
3759,-0.11
3760,-0.115
3761,-0.12
3762,-0.13
3763,-0.14
3764,-0.125
3765,-0.115
3766,-0.1
3767,-0.1
3768,-0.11
3769,-0.105
3770,-0.105
3771,-0.1
3772,-0.125
3773,-0.105
3774,-0.08
3775,-0.08
3776,-0.06
3777,-0.065
3778,-0.065
3779,-0.08
3780,-0.095
3781,-0.1
3782,-0.11
3783,-0.105
3784,-0.075
3785,-0.05
3786,-0.05
3787,-0.045
3788,-0.05
3789,-0.065
3790,-0.07
3791,-0.055
3792,-0.065
3793,-0.055
3794,-0.06
3795,-0.04
3796,-0.035
3797,-0.03
3798,-0.045
3799,-0.06
3800,-0.065
3801,-0.065
3802,-0.075
3803,-0.075
3804,-0.075
3805,-0.075
3806,-0.05
3807,-0.07
3808,-0.095
3809,-0.095
3810,-0.11
3811,-0.115
3812,-0.135
3813,-0.11
3814,-0.105
3815,-0.115
3816,-0.105
3817,-0.1
3818,-0.105
3819,-0.115
3820,-0.135
3821,-0.14
3822,-0.13
3823,-0.13
3824,-0.12
3825,-0.115
3826,-0.1
3827,-0.095
3828,-0.105
3829,-0.12
3830,-0.12
3831,-0.12
3832,-0.15
3833,-0.13
3834,-0.12
3835,-0.115
3836,-0.135
3837,-0.12
3838,-0.11
3839,-0.11
3840,-0.115
3841,-0.13
3842,-0.135
3843,-0.135
3844,-0.125
3845,-0.105
3846,-0.11
3847,-0.11
3848,-0.135
3849,-0.135
3850,-0.15
3851,-0.16
3852,-0.16
3853,-0.145
3854,-0.15
3855,-0.17
3856,-0.15
3857,-0.135
3858,-0.115
3859,-0.08
3860,-0.04
3861,0
3862,0.03
3863,0.095
3864,0.155
3865,0.24
3866,0.345
3867,0.415
3868,0.5
3869,0.485
3870,0.465
3871,0.395
3872,0.35
3873,0.285
3874,0.24
3875,0.175
3876,0.085
3877,-0.025
3878,-0.135
3879,-0.22
3880,-0.225
3881,-0.205
3882,-0.18
3883,-0.15
3884,-0.135
3885,-0.11
3886,-0.095
3887,-0.085
3888,-0.075
3889,-0.095
3890,-0.105
3891,-0.125
3892,-0.12
3893,-0.12
3894,-0.11
3895,-0.095
3896,-0.08
3897,-0.075
3898,-0.085
3899,-0.1
3900,-0.12
3901,-0.125
3902,-0.11
3903,-0.12
3904,-0.115
3905,-0.1
3906,-0.09
3907,-0.085
3908,-0.1
3909,-0.1
3910,-0.09
3911,-0.095
3912,-0.085
3913,-0.09
3914,-0.09
3915,-0.085
3916,-0.065
3917,-0.075
3918,-0.08
3919,-0.075
3920,-0.08
3921,-0.1
3922,-0.09
3923,-0.07
3924,-0.055
3925,-0.065
3926,-0.065
3927,-0.06
3928,-0.035
3929,-0.025
3930,-0.015
3931,0
3932,0.015
3933,0.04
3934,0.04
3935,0.075
3936,0.085
3937,0.085
3938,0.09
3939,0.095
3940,0.07
3941,0.08
3942,0.1
3943,0.1
3944,0.12
3945,0.135
3946,0.145
3947,0.125
3948,0.135
3949,0.13
3950,0.115
3951,0.135
3952,0.145
3953,0.18
3954,0.19
3955,0.175
3956,0.185
3957,0.19
3958,0.18
3959,0.185
3960,0.18
3961,0.185
3962,0.195
3963,0.215
3964,0.21
3965,0.22
3966,0.25
3967,0.255
3968,0.25
3969,0.26
3970,0.245
3971,0.26
3972,0.26
3973,0.285
3974,0.275
3975,0.305
3976,0.305
3977,0.295
3978,0.29
3979,0.27
3980,0.275
3981,0.28
3982,0.285
3983,0.295
3984,0.32
3985,0.29
3986,0.32
3987,0.305
3988,0.3
3989,0.28
3990,0.26
3991,0.27
3992,0.26
3993,0.27
3994,0.27
3995,0.265
3996,0.265
3997,0.24
3998,0.215
3999,0.225
4000,0.21
4001,0.18
4002,0.175
4003,0.17
4004,0.17
4005,0.185
4006,0.16
4007,0.145
4008,0.125
4009,0.115
4010,0.1
4011,0.11
4012,0.105
4013,0.1
4014,0.13
4015,0.11
4016,0.105
4017,0.085
4018,0.07
4019,0.065
4020,0.065
4021,0.06
4022,0.075
4023,0.075
4024,0.07
4025,0.065
4026,0.065
4027,0.06
4028,0.045
4029,0.035
4030,0.035
4031,0.02
4032,0.035
4033,0.05
4034,0.05
4035,0.07
4036,0.07
4037,0.05
4038,0.05
4039,0.04
4040,0.03
4041,0.035
4042,0.05
4043,0.05
4044,0.07
4045,0.08
4046,0.055
4047,0.045
4048,0.04
4049,0.03
4050,0.04
4051,0.02
4052,0.04
4053,0.05
4054,0.05
4055,0.06
4056,0.045
4057,0.035
4058,0.035
4059,0.025
4060,0.025
4061,0.03
4062,0.04
4063,0.05
4064,0.055
4065,0.065
4066,0.05
4067,0.045
4068,0.03
4069,0.02
4070,0.015
4071,0.01
4072,0.015
4073,0.03
4074,0.04
4075,0.05
4076,0.04
4077,0.025
4078,0.02
4079,0.005
4080,0.01
4081,0.01
4082,0.03
4083,0.035
4084,0.045
4085,0.035
4086,0.035
4087,0.015
4088,0.01
4089,0
4090,-0.01
4091,-0.005
4092,0.015
4093,0.015
4094,0.01
4095,0.025
4096,0.015
4097,0.005
4098,-0.015
4099,0.01
4100,0.005
4101,-0.005
4102,0.005
4103,0.01
4104,0.02
4105,0
4106,0.01
4107,-0.015
4108,-0.04
4109,-0.045
4110,-0.05
4111,-0.03
4112,-0.015
4113,-0.005
4114,0.01
4115,-0.03
4116,0
4117,-0.01
4118,-0.01
4119,-0.03
4120,-0.025
4121,-0.04
4122,-0.035
4123,-0.01
4124,-0.005
4125,-0.02
4126,-0.03
4127,-0.04
4128,-0.03
4129,-0.045
4130,-0.06
4131,-0.02
4132,0
4133,-0.025
4134,-0.02
4135,0.015
4136,-0.035
4137,-0.04
4138,-0.06
4139,-0.05
4140,-0.035
4141,-0.05
4142,-0.035
4143,-0.05
4144,-0.04
4145,-0.03
4146,-0.03
4147,-0.05
4148,-0.045
4149,-0.06
4150,-0.08
4151,-0.045
4152,-0.04
4153,-0.045
4154,-0.04
4155,-0.03
4156,-0.065
4157,-0.065
4158,-0.055
4159,-0.07
4160,-0.075
4161,-0.07
4162,-0.055
4163,-0.055
4164,-0.06
4165,-0.05
4166,-0.065
4167,-0.075
4168,-0.075
4169,-0.085
4170,-0.095
4171,-0.08
4172,-0.07
4173,-0.07
4174,-0.065
4175,-0.075
4176,-0.075
4177,-0.08
4178,-0.075
4179,-0.1
4180,-0.085
4181,-0.08
4182,-0.075
4183,-0.055
4184,-0.06
4185,-0.08
4186,-0.09
4187,-0.105
4188,-0.11
4189,-0.11
4190,-0.1
4191,-0.075
4192,-0.065
4193,-0.055
4194,-0.05
4195,-0.055
4196,-0.075
4197,-0.065
4198,-0.06
4199,-0.065
4200,-0.055
4201,-0.04
4202,-0.045
4203,-0.04
4204,-0.045
4205,-0.05
4206,-0.07
4207,-0.08
4208,-0.08
4209,-0.065
4210,-0.025
4211,-0.03
4212,-0.03
4213,-0.03
4214,0
4215,-0.01
4216,-0.02
4217,-0.035
4218,-0.04
4219,-0.045
4220,-0.04
4221,-0.025
4222,-0.03
4223,-0.03
4224,-0.025
4225,-0.005
4226,-0.035
4227,-0.045
4228,-0.065
4229,-0.1
4230,-0.085
4231,-0.08
4232,-0.08
4233,-0.08
4234,-0.08
4235,-0.09
4236,-0.1
4237,-0.115
4238,-0.12
4239,-0.135
4240,-0.13
4241,-0.105
4242,-0.115
4243,-0.1
4244,-0.105
4245,-0.095
4246,-0.1
4247,-0.12
4248,-0.13
4249,-0.135
4250,-0.12
4251,-0.115
4252,-0.105
4253,-0.105
4254,-0.105
4255,-0.12
4256,-0.14
4257,-0.135
4258,-0.13
4259,-0.145
4260,-0.13
4261,-0.11
4262,-0.11
4263,-0.13
4264,-0.115
4265,-0.11
4266,-0.125
4267,-0.14
4268,-0.14
4269,-0.16
4270,-0.13
4271,-0.125
4272,-0.13
4273,-0.15
4274,-0.12
4275,-0.145
4276,-0.16
4277,-0.175
4278,-0.16
4279,-0.195
4280,-0.185
4281,-0.14
4282,-0.09
4283,-0.045
4284,0.01
4285,0.05
4286,0.07
4287,0.12
4288,0.19
4289,0.28
4290,0.39
4291,0.505
4292,0.52
4293,0.51
4294,0.47
4295,0.385
4296,0.33
4297,0.25
4298,0.155
4299,0.06
4300,-0.06
4301,-0.135
4302,-0.205
4303,-0.22
4304,-0.205
4305,-0.21
4306,-0.195
4307,-0.165
4308,-0.145
4309,-0.13
4310,-0.13
4311,-0.11
4312,-0.09
4313,-0.095
4314,-0.105
4315,-0.115
4316,-0.115
4317,-0.115
4318,-0.115
4319,-0.11
4320,-0.11
4321,-0.08
4322,-0.12
4323,-0.1
4324,-0.08
4325,-0.11
4326,-0.145
4327,-0.125
4328,-0.13
4329,-0.115
4330,-0.11
4331,-0.08
4332,-0.065
4333,-0.07
4334,-0.08
4335,-0.095
4336,-0.1
4337,-0.095
4338,-0.115
4339,-0.11
4340,-0.085
4341,-0.09
4342,-0.065
4343,-0.04
4344,-0.065
4345,-0.045
4346,-0.08
4347,-0.065
4348,-0.1
4349,-0.105
4350,-0.095
4351,-0.08
4352,-0.07
4353,-0.06
4354,-0.08
4355,-0.08
4356,-0.075
4357,-0.055
4358,-0.095
4359,-0.075
4360,-0.055
4361,-0.035
4362,-0.03
4363,-0.03
4364,-0.035
4365,-0.045
4366,-0.04
4367,-0.045
4368,-0.045
4369,-0.045
4370,-0.035
4371,-0.015
4372,0
4373,0.005
4374,0
4375,-0.015
4376,-0.02
4377,-0.025
4378,-0.015
4379,0
4380,-0.01
4381,0.02
4382,0.03
4383,0.05
4384,0.055
4385,0.045
4386,0.04
4387,0.03
4388,0.03
4389,0.035
4390,0.055
4391,0.065
4392,0.085
4393,0.13
4394,0.1
4395,0.075
4396,0.09
4397,0.09
4398,0.095
4399,0.095
4400,0.11
4401,0.12
4402,0.13
4403,0.15
4404,0.135
4405,0.1
4406,0.1
4407,0.115
4408,0.095
4409,0.115
4410,0.125
4411,0.11
4412,0.125
4413,0.115
4414,0.105
4415,0.09
4416,0.085
4417,0.07
4418,0.06
4419,0.06
4420,0.05
4421,0.095
4422,0.045
4423,0.04
4424,0.03
4425,-0.005
4426,-0.015
4427,-0.01
4428,-0.035
4429,-0.04
4430,-0.03
4431,-0.04
4432,-0.05
4433,-0.04
4434,-0.06
4435,-0.1
4436,-0.105
4437,-0.105
4438,-0.115
4439,-0.095
4440,-0.09
4441,-0.065
4442,-0.085
4443,-0.09
4444,-0.115
4445,-0.135
4446,-0.135
4447,-0.115
4448,-0.125
4449,-0.125
4450,-0.12
4451,-0.11
4452,-0.095
4453,-0.1
4454,-0.115
4455,-0.125
4456,-0.14
4457,-0.145
4458,-0.14
4459,-0.12
4460,-0.115
4461,-0.105
4462,-0.105
4463,-0.1
4464,-0.115
4465,-0.12
4466,-0.135
4467,-0.14
4468,-0.14
4469,-0.125
4470,-0.105
4471,-0.11
4472,-0.1
4473,-0.105
4474,-0.1
4475,-0.105
4476,-0.11
4477,-0.125
4478,-0.14
4479,-0.125
4480,-0.115
4481,-0.135
4482,-0.105
4483,-0.11
4484,-0.12
4485,-0.125
4486,-0.125
4487,-0.125
4488,-0.12
4489,-0.125
4490,-0.11
4491,-0.095
4492,-0.09
4493,-0.095
4494,-0.105
4495,-0.11
4496,-0.1
4497,-0.12
4498,-0.13
4499,-0.125
4500,-0.105
4501,-0.105
4502,-0.095
4503,-0.105
4504,-0.11
4505,-0.1
4506,-0.13
4507,-0.135
4508,-0.125
4509,-0.11
4510,-0.11
4511,-0.095
4512,-0.09
4513,-0.08
4514,-0.085
4515,-0.095
4516,-0.12
4517,-0.12
4518,-0.13
4519,-0.115
4520,-0.12
4521,-0.1
4522,-0.09
4523,-0.095
4524,-0.11
4525,-0.12
4526,-0.12
4527,-0.12
4528,-0.12
4529,-0.11
4530,-0.11
4531,-0.1
4532,-0.1
4533,-0.11
4534,-0.12
4535,-0.125
4536,-0.12
4537,-0.13
4538,-0.135
4539,-0.125
4540,-0.115
4541,-0.105
4542,-0.095
4543,-0.125
4544,-0.13
4545,-0.135
4546,-0.135
4547,-0.145
4548,-0.125
4549,-0.115
4550,-0.13
4551,-0.115
4552,-0.115
4553,-0.11
4554,-0.125
4555,-0.125
4556,-0.135
4557,-0.13
4558,-0.125
4559,-0.125
4560,-0.13
4561,-0.125
4562,-0.12
4563,-0.14
4564,-0.14
4565,-0.14
4566,-0.145
4567,-0.16
4568,-0.14
4569,-0.13
4570,-0.12
4571,-0.115
4572,-0.11
4573,-0.13
4574,-0.14
4575,-0.14
4576,-0.15
4577,-0.155
4578,-0.135
4579,-0.125
4580,-0.11
4581,-0.1
4582,-0.1
4583,-0.13
4584,-0.125
4585,-0.14
4586,-0.15
4587,-0.15
4588,-0.13
4589,-0.12
4590,-0.13
4591,-0.105
4592,-0.125
4593,-0.14
4594,-0.145
4595,-0.135
4596,-0.14
4597,-0.16
4598,-0.125
4599,-0.13
4600,-0.14
4601,-0.135
4602,-0.14
4603,-0.15
4604,-0.135
4605,-0.145
4606,-0.15
4607,-0.15
4608,-0.13
4609,-0.12
4610,-0.11
4611,-0.1
4612,-0.11
4613,-0.105
4614,-0.11
4615,-0.105
4616,-0.115
4617,-0.11
4618,-0.12
4619,-0.1
4620,-0.11
4621,-0.085
4622,-0.105
4623,-0.1
4624,-0.1
4625,-0.095
4626,-0.085
4627,-0.085
4628,-0.08
4629,-0.06
4630,-0.06
4631,-0.045
4632,-0.06
4633,-0.07
4634,-0.06
4635,-0.07
4636,-0.07
4637,-0.065
4638,-0.075
4639,-0.085
4640,-0.07
4641,-0.09
4642,-0.1
4643,-0.1
4644,-0.115
4645,-0.125
4646,-0.14
4647,-0.13
4648,-0.125
4649,-0.125
4650,-0.135
4651,-0.125
4652,-0.14
4653,-0.13
4654,-0.13
4655,-0.145
4656,-0.15
4657,-0.135
4658,-0.14
4659,-0.14
4660,-0.115
4661,-0.13
4662,-0.145
4663,-0.15
4664,-0.145
4665,-0.16
4666,-0.165
4667,-0.145
4668,-0.135
4669,-0.13
4670,-0.13
4671,-0.14
4672,-0.14
4673,-0.15
4674,-0.165
4675,-0.16
4676,-0.185
4677,-0.15
4678,-0.135
4679,-0.13
4680,-0.145
4681,-0.135
4682,-0.135
4683,-0.16
4684,-0.16
4685,-0.17
4686,-0.185
4687,-0.17
4688,-0.175
4689,-0.165
4690,-0.17
4691,-0.165
4692,-0.18
4693,-0.195
4694,-0.21
4695,-0.19
4696,-0.165
4697,-0.11
4698,-0.05
4699,0
4700,0.055
4701,0.125
4702,0.185
4703,0.28
4704,0.375
4705,0.495
4706,0.585
4707,0.58
4708,0.555
4709,0.49
4710,0.43
4711,0.325
4712,0.235
4713,0.105
4714,-0.01
4715,-0.12
4716,-0.24
4717,-0.275
4718,-0.26
4719,-0.22
4720,-0.195
4721,-0.185
4722,-0.15
4723,-0.135
4724,-0.16
4725,-0.145
4726,-0.14
4727,-0.125
4728,-0.115
4729,-0.115
4730,-0.11
4731,-0.11
4732,-0.135
4733,-0.13
4734,-0.14
4735,-0.145
4736,-0.15
4737,-0.12
4738,-0.12
4739,-0.115
4740,-0.105
4741,-0.09
4742,-0.115
4743,-0.125
4744,-0.125
4745,-0.13
4746,-0.125
4747,-0.12
4748,-0.095
4749,-0.1
4750,-0.1
4751,-0.1
4752,-0.11
4753,-0.12
4754,-0.12
4755,-0.125
4756,-0.1
4757,-0.11
4758,-0.09
4759,-0.08
4760,-0.08
4761,-0.075
4762,-0.08
4763,-0.085
4764,-0.1
4765,-0.095
4766,-0.1
4767,-0.075
4768,-0.075
4769,-0.07
4770,-0.065
4771,-0.065
4772,-0.08
4773,-0.09
4774,-0.095
4775,-0.095
4776,-0.075
4777,-0.07
4778,-0.06
4779,-0.04
4780,-0.035
4781,-0.045
4782,-0.065
4783,-0.065
4784,-0.055
4785,-0.05
4786,-0.045
4787,-0.04
4788,-0.025
4789,0.005
4790,0.005
4791,0.015
4792,0.005
4793,-0.01
4794,-0.01
4795,-0.02
4796,-0.005
4797,0.005
4798,0.03
4799,0.025
4800,0.04
4801,0.065
4802,0.06
4803,0.055
4804,0.055
4805,0.045
4806,0.06
4807,0.07
4808,0.075
4809,0.095
4810,0.12
4811,0.115
4812,0.125
4813,0.12
4814,0.12
4815,0.115
4816,0.11
4817,0.125
4818,0.15
4819,0.14
4820,0.145
4821,0.145
4822,0.13
4823,0.11
4824,0.095
4825,0.095
4826,0.095
4827,0.12
4828,0.12
4829,0.125
4830,0.125
4831,0.105
4832,0.095
4833,0.07
4834,0.06
4835,0.045
4836,0.04
4837,0.04
4838,0.04
4839,0.015
4840,0.02
4841,0.015
4842,-0.025
4843,-0.055
4844,-0.045
4845,-0.05
4846,-0.065
4847,-0.065
4848,-0.045
4849,-0.055
4850,-0.055
4851,-0.07
4852,-0.085
4853,-0.105
4854,-0.11
4855,-0.11
4856,-0.115
4857,-0.11
4858,-0.105
4859,-0.11
4860,-0.105
4861,-0.1
4862,-0.095
4863,-0.13
4864,-0.135
4865,-0.14
4866,-0.115
4867,-0.125
4868,-0.125
4869,-0.095
4870,-0.1
4871,-0.125
4872,-0.14
4873,-0.135
4874,-0.14
4875,-0.145
4876,-0.125
4877,-0.115
4878,-0.11
4879,-0.12
4880,-0.11
4881,-0.125
4882,-0.125
4883,-0.125
4884,-0.125
4885,-0.135
4886,-0.115
4887,-0.12
4888,-0.11
4889,-0.1
4890,-0.085
4891,-0.105
4892,-0.11
4893,-0.125
4894,-0.125
4895,-0.125
4896,-0.12
4897,-0.095
4898,-0.095
4899,-0.09
4900,-0.1
4901,-0.105
4902,-0.115
4903,-0.115
4904,-0.125
4905,-0.13
4906,-0.105
4907,-0.1
4908,-0.08
4909,-0.09
4910,-0.075
4911,-0.1
4912,-0.125
4913,-0.12
4914,-0.125
4915,-0.13
4916,-0.09
4917,-0.095
4918,-0.08
4919,-0.07
4920,-0.08
4921,-0.09
4922,-0.11
4923,-0.115
4924,-0.12
4925,-0.11
4926,-0.1
4927,-0.1
4928,-0.09
4929,-0.08
4930,-0.095
4931,-0.105
4932,-0.105
4933,-0.125
4934,-0.115
4935,-0.11
4936,-0.105
4937,-0.1
4938,-0.09
4939,-0.095
4940,-0.1
4941,-0.115
4942,-0.11
4943,-0.105
4944,-0.08
4945,-0.075
4946,-0.055
4947,-0.045
4948,-0.025
4949,0
4950,0
4951,-0.005
4952,-0.025
4953,-0.01
4954,-0.015
4955,-0.025
4956,0.005
4957,0.015
4958,0.02
4959,0.035
4960,0.035
4961,0.015
4962,0.005
4963,-0.01
4964,-0.01
4965,0.015
4966,0.03
4967,0.035
4968,0.035
4969,0.04
4970,0.02
4971,0.01
4972,0.005
4973,0.005
4974,0.01
4975,0.01
4976,0.025
4977,0.03
4978,0.045
4979,0.055
4980,0.05
4981,0.03
4982,0.01
4983,0.01
4984,0.005
4985,0.005
4986,0.025
4987,0.04
4988,0.05
4989,0.035
4990,0.025
4991,0.02
4992,0.01
4993,0.015
4994,0.015
4995,0.015
4996,0.03
4997,0.02
4998,0.035
4999,0.04
5000,-0.085
5001,-0.08
5002,-0.07
5003,-0.075
5004,-0.095
5005,-0.09
5006,-0.1
5007,-0.1
5008,-0.1
5009,-0.085
5010,-0.06
5011,-0.045
5012,-0.055
5013,-0.06
5014,-0.07
5015,-0.08
5016,-0.085
5017,-0.08
5018,-0.07
5019,-0.04
5020,-0.05
5021,-0.045
5022,-0.04
5023,-0.04
5024,-0.055
5025,-0.06
5026,-0.055
5027,-0.055
5028,-0.055
5029,-0.045
5030,-0.04
5031,-0.045
5032,-0.04
5033,-0.03
5034,-0.035
5035,-0.045
5036,-0.055
5037,-0.055
5038,-0.05
5039,-0.02
5040,-0.015
5041,-0.01
5042,0.005
5043,0
5044,-0.005
5045,-0.025
5046,-0.035
5047,-0.03
5048,-0.03
5049,-0.015
5050,-0.005
5051,0
5052,0.01
5053,0.02
5054,0
5055,-0.005
5056,0.005
5057,0.005
5058,0.01
5059,0.025
5060,0.04
5061,0.055
5062,0.06
5063,0.045
5064,0.04
5065,0.045
5066,0.04
5067,0.04
5068,0.07
5069,0.075
5070,0.09
5071,0.105
5072,0.105
5073,0.115
5074,0.105
5075,0.1
5076,0.1
5077,0.095
5078,0.125
5079,0.155
5080,0.16
5081,0.16
5082,0.175
5083,0.175
5084,0.155
5085,0.16
5086,0.15
5087,0.15
5088,0.16
5089,0.18
5090,0.19
5091,0.19
5092,0.2
5093,0.19
5094,0.18
5095,0.175
5096,0.165
5097,0.16
5098,0.165
5099,0.155
5100,0.165
5101,0.165
5102,0.17
5103,0.145
5104,0.135
5105,0.11
5106,0.09
5107,0.07
5108,0.075
5109,0.085
5110,0.085
5111,0.07
5112,0.07
5113,0.05
5114,0.04
5115,0.025
5116,0.005
5117,-0.005
5118,0
5119,0
5120,0.005
5121,0.01
5122,0
5123,0.01
5124,0.015
5125,0.03
5126,0.035
5127,0.045
5128,0.065
5129,0.085
5130,0.09
5131,0.12
5132,0.115
5133,0.09
5134,0.085
5135,0.07
5136,0.08
5137,0.08
5138,0.09
5139,0.095
5140,0.11
5141,0.115
5142,0.13
5143,0.115
5144,0.1
5145,0.095
5146,0.095
5147,0.095
5148,0.1
5149,0.11
5150,0.12
5151,0.125
5152,0.14
5153,0.135
5154,0.115
5155,0.115
5156,0.115
5157,0.115
5158,0.125
5159,0.13
5160,0.125
5161,0.14
5162,0.14
5163,0.14
5164,0.13
5165,0.105
5166,0.1
5167,0.1
5168,0.13
5169,0.14
5170,0.135
5171,0.15
5172,0.145
5173,0.13
5174,0.125
5175,0.125
5176,0.115
5177,0.12
5178,0.125
5179,0.14
5180,0.14
5181,0.15
5182,0.145
5183,0.14
5184,0.135
5185,0.14
5186,0.125
5187,0.125
5188,0.135
5189,0.145
5190,0.145
5191,0.14
5192,0.135
5193,0.12
5194,0.12
5195,0.11
5196,0.115
5197,0.12
5198,0.135
5199,0.135
5200,0.13
5201,0.135
5202,0.13
5203,0.11
5204,0.11
5205,0.11
5206,0.105
5207,0.115
5208,0.125
5209,0.13
5210,0.115
5211,0.12
5212,0.115
5213,0.105
5214,0.1
5215,0.105
5216,0.09
5217,0.1
5218,0.105
5219,0.11
5220,0.12
5221,0.135
5222,0.12
5223,0.11
5224,0.095
5225,0.1
5226,0.095
5227,0.1
5228,0.11
5229,0.11
5230,0.115
5231,0.115
5232,0.095
5233,0.08
5234,0.075
5235,0.07
5236,0.07
5237,0.075
5238,0.09
5239,0.085
5240,0.1
5241,0.125
5242,0.11
5243,0.105
5244,0.075
5245,0.08
5246,0.065
5247,0.075
5248,0.08
5249,0.09
5250,0.1
5251,0.115
5252,0.105
5253,0.09
5254,0.085
5255,0.09
5256,0.085
5257,0.095
5258,0.11
5259,0.135
5260,0.13
5261,0.135
5262,0.125
5263,0.12
5264,0.11
5265,0.105
5266,0.095
5267,0.11
5268,0.14
5269,0.135
5270,0.14
5271,0.14
5272,0.13
5273,0.125
5274,0.12
5275,0.105
5276,0.1
5277,0.12
5278,0.15
5279,0.16
5280,0.16
5281,0.17
5282,0.16
5283,0.12
5284,0.115
5285,0.115
5286,0.095
5287,0.095
5288,0.1
5289,0.095
5290,0.09
5291,0.09
5292,0.085
5293,0.055
5294,0.065
5295,0.06
5296,0.065
5297,0.075
5298,0.08
5299,0.08
5300,0.095
5301,0.075
5302,0.055
5303,0.05
5304,0.045
5305,0.035
5306,0.045
5307,0.045
5308,0.055
5309,0.06
5310,0.06
5311,0.06
5312,0.06
5313,0.05
5314,0.035
5315,0.02
5316,0.025
5317,0.035
5318,0.045
5319,0.055
5320,0.06
5321,0.055
5322,0.035
5323,0.025
5324,0.03
5325,0.02
5326,0.03
5327,0.05
5328,0.03
5329,0.04
5330,0.05
5331,0.04
5332,0.025
5333,0
5334,-0.01
5335,-0.025
5336,-0.03
5337,-0.025
5338,-0.015
5339,-0.005
5340,0.03
5341,0.065
5342,0.11
5343,0.16
5344,0.2
5345,0.255
5346,0.335
5347,0.425
5348,0.53
5349,0.645
5350,0.72
5351,0.735
5352,0.685
5353,0.63
5354,0.57
5355,0.485
5356,0.41
5357,0.335
5358,0.23
5359,0.1
5360,0.01
5361,-0.06
5362,-0.1
5363,-0.1
5364,-0.09
5365,-0.085
5366,-0.06
5367,-0.02
5368,0.01
5369,0.035
5370,0.04
5371,0.035
5372,0.015
5373,-0.005
5374,-0.02
5375,-0.025
5376,-0.01
5377,0
5378,0.005
5379,0.025
5380,0.025
5381,0.02
5382,0
5383,0.005
5384,-0.015
5385,-0.02
5386,-0.01
5387,-0.01
5388,0
5389,0.01
5390,0
5391,0.005
5392,0.005
5393,-0.005
5394,0
5395,-0.01
5396,0
5397,0.015
5398,0.02
5399,0.025
5400,0.04
5401,0.025
5402,0.01
5403,0
5404,-0.005
5405,-0.005
5406,0.005
5407,0.025
5408,0.025
5409,0.03
5410,0.025
5411,0.01
5412,0.02
5413,0.005
5414,0.01
5415,0.005
5416,0.015
5417,0.02
5418,0.035
5419,0.04
5420,0.05
5421,0.05
5422,0.045
5423,0.04
5424,0.025
5425,0.03
5426,0.03
5427,0.04
5428,0.045
5429,0.055
5430,0.06
5431,0.065
5432,0.065
5433,0.07
5434,0.07
5435,0.065
5436,0.08
5437,0.095
5438,0.105
5439,0.105
5440,0.12
5441,0.115
5442,0.115
5443,0.11
5444,0.1
5445,0.1
5446,0.115
5447,0.13
5448,0.15
5449,0.155
5450,0.16
5451,0.15
5452,0.16
5453,0.165
5454,0.155
5455,0.16
5456,0.175
5457,0.2
5458,0.205
5459,0.21
5460,0.205
5461,0.195
5462,0.185
5463,0.18
5464,0.18
5465,0.18
5466,0.18
5467,0.2
5468,0.205
5469,0.205
5470,0.195
5471,0.17
5472,0.15
5473,0.135
5474,0.13
5475,0.125
5476,0.13
5477,0.115
5478,0.13
5479,0.13
5480,0.115
5481,0.095
5482,0.08
5483,0.07
5484,0.055
5485,0.03
5486,0.015
5487,0.025
5488,0.025
5489,0.02
5490,0.01
5491,-0.005
5492,-0.02
5493,-0.025
5494,-0.035
5495,-0.03
5496,-0.01
5497,0
5498,-0.01
5499,-0.005
5500,-0.01
5501,-0.03
5502,-0.04
5503,-0.055
5504,-0.065
5505,-0.055
5506,-0.04
5507,-0.045
5508,-0.025
5509,-0.035
5510,-0.03
5511,-0.05
5512,-0.055
5513,-0.06
5514,-0.06
5515,-0.045
5516,-0.045
5517,-0.035
5518,-0.02
5519,-0.03
5520,-0.03
5521,-0.05
5522,-0.055
5523,-0.055
5524,-0.06
5525,-0.055
5526,-0.05
5527,-0.04
5528,-0.055
5529,-0.03
5530,-0.055
5531,-0.05
5532,-0.05
5533,-0.06
5534,-0.06
5535,-0.045
5536,-0.04
5537,-0.04
5538,-0.04
5539,-0.04
5540,-0.05
5541,-0.055
5542,-0.055
5543,-0.06
5544,-0.055
5545,-0.03
5546,-0.03
5547,-0.025
5548,-0.02
5549,-0.015
5550,-0.025
5551,-0.035
5552,-0.045
5553,-0.05
5554,-0.055
5555,-0.045
5556,-0.04
5557,-0.02
5558,-0.015
5559,-0.01
5560,-0.015
5561,-0.02
5562,-0.03
5563,-0.035
5564,-0.04
5565,-0.03
5566,-0.03
5567,-0.025
5568,-0.015
5569,-0.015
5570,-0.025
5571,-0.02
5572,-0.035
5573,-0.04
5574,-0.045
5575,-0.045
5576,-0.03
5577,-0.025
5578,-0.005
5579,-0.01
5580,-0.03
5581,-0.03
5582,-0.035
5583,-0.05
5584,-0.06
5585,-0.04
5586,-0.04
5587,-0.03
5588,-0.02
5589,-0.025
5590,-0.04
5591,-0.045
5592,-0.02
5593,-0.05
5594,-0.055
5595,-0.04
5596,-0.03
5597,-0.035
5598,-0.015
5599,-0.02
5600,-0.04
5601,-0.05
5602,-0.055
5603,-0.06
5604,-0.06
5605,-0.055
5606,-0.04
5607,-0.04
5608,-0.035
5609,-0.02
5610,-0.035
5611,-0.045
5612,-0.05
5613,-0.07
5614,-0.07
5615,-0.05
5616,-0.045
5617,-0.035
5618,-0.035
5619,-0.035
5620,-0.045
5621,-0.055
5622,-0.05
5623,-0.05
5624,-0.04
5625,-0.035
5626,-0.025
5627,-0.005
5628,-0.01
5629,-0.025
5630,-0.04
5631,-0.03
5632,-0.035
5633,-0.04
5634,-0.04
5635,-0.025
5636,-0.015
5637,-0.01
5638,0.015
5639,-0.005
5640,-0.005
5641,-0.015
5642,-0.02
5643,-0.025
5644,-0.025
5645,-0.01
5646,0.005
5647,0.015
5648,0.02
5649,0.015
5650,0.005
5651,0.005
5652,0
5653,0
5654,0
5655,0
5656,0.005
5657,0.02
5658,0.03
5659,0.02
5660,-0.01
5661,-0.025
5662,-0.035
5663,-0.055
5664,-0.05
5665,-0.045
5666,-0.04
5667,-0.045
5668,-0.025
5669,-0.035
5670,-0.06
5671,-0.06
5672,-0.07
5673,-0.08
5674,-0.065
5675,-0.055
5676,-0.05
5677,-0.05
5678,-0.035
5679,-0.055
5680,-0.055
5681,-0.06
5682,-0.065
5683,-0.065
5684,-0.06
5685,-0.065
5686,-0.065
5687,-0.065
5688,-0.065
5689,-0.065
5690,-0.08
5691,-0.085
5692,-0.08
5693,-0.1
5694,-0.09
5695,-0.08
5696,-0.06
5697,-0.045
5698,-0.045
5699,-0.055
5700,-0.06
5701,-0.085
5702,-0.085
5703,-0.1
5704,-0.1
5705,-0.08
5706,-0.075
5707,-0.07
5708,-0.075
5709,-0.095
5710,-0.105
5711,-0.115
5712,-0.14
5713,-0.155
5714,-0.135
5715,-0.105
5716,-0.045
5717,0.02
5718,0.075
5719,0.125
5720,0.17
5721,0.225
5722,0.275
5723,0.39
5724,0.515
5725,0.64
5726,0.69
5727,0.66
5728,0.615
5729,0.555
5730,0.485
5731,0.39
5732,0.305
5733,0.195
5734,0.085
5735,-0.03
5736,-0.115
5737,-0.155
5738,-0.145
5739,-0.125
5740,-0.115
5741,-0.11
5742,-0.085
5743,-0.05
5744,-0.055
5745,-0.03
5746,-0.035
5747,-0.045
5748,-0.04
5749,-0.04
5750,-0.065
5751,-0.07
5752,-0.08
5753,-0.075
5754,-0.07
5755,-0.06
5756,-0.05
5757,-0.03
5758,-0.045
5759,-0.045
5760,-0.055
5761,-0.06
5762,-0.055
5763,-0.06
5764,-0.04
5765,-0.035
5766,-0.025
5767,-0.01
5768,-0.025
5769,-0.045
5770,-0.05
5771,-0.055
5772,-0.05
5773,-0.055
5774,-0.03
5775,-0.025
5776,-0.02
5777,-0.01
5778,-0.01
5779,-0.02
5780,-0.03
5781,-0.025
5782,-0.02
5783,-0.015
5784,0.005
5785,0.02
5786,0.025
5787,0.025
5788,0.015
5789,0.005
5790,-0.01
5791,-0.01
5792,-0.01
5793,0.01
5794,0.015
5795,0.025
5796,0.045
5797,0.06
5798,0.065
5799,0.05
5800,0.04
5801,0.045
5802,0.04
5803,0.045
5804,0.045
5805,0.06
5806,0.065
5807,0.07
5808,0.065
5809,0.065
5810,0.065
5811,0.065
5812,0.075
5813,0.08
5814,0.1
5815,0.115
5816,0.125
5817,0.13
5818,0.14
5819,0.14
5820,0.15
5821,0.135
5822,0.13
5823,0.14
5824,0.17
5825,0.175
5826,0.19
5827,0.2
5828,0.205
5829,0.19
5830,0.2
5831,0.2
5832,0.195
5833,0.21
5834,0.225
5835,0.235
5836,0.23
5837,0.24
5838,0.225
5839,0.225
5840,0.205
5841,0.2
5842,0.19
5843,0.19
5844,0.205
5845,0.205
5846,0.22
5847,0.23
5848,0.205
5849,0.195
5850,0.175
5851,0.165
5852,0.155
5853,0.15
5854,0.14
5855,0.135
5856,0.13
5857,0.11
5858,0.105
5859,0.085
5860,0.075
5861,0.065
5862,0.06
5863,0.065
5864,0.06
5865,0.06
5866,0.05
5867,0.045
5868,0.04
5869,0.02
5870,0.01
5871,0
5872,0
5873,0.01
5874,0.015
5875,0.01
5876,0.02
5877,0.01
5878,0
5879,-0.02
5880,-0.02
5881,-0.04
5882,-0.035
5883,-0.025
5884,-0.015
5885,-0.005
5886,0.005
5887,-0.005
5888,-0.02
5889,-0.025
5890,-0.025
5891,-0.025
5892,-0.025
5893,-0.025
5894,-0.01
5895,0.005
5896,0.015
5897,0.01
5898,0.005
5899,-0.02
5900,-0.015
5901,-0.015
5902,-0.02
5903,-0.025
5904,-0.02
5905,-0.02
5906,0
5907,0.015
5908,-0.005
5909,-0.01
5910,-0.02
5911,-0.03
5912,-0.03
5913,-0.015
5914,0
5915,0.01
5916,0.015
5917,0.015
5918,-0.005
5919,-0.01
5920,-0.035
5921,-0.025
5922,-0.025
5923,-0.02
5924,0.005
5925,0.015
5926,0.02
5927,0.025
5928,0
5929,-0.01
5930,-0.025
5931,-0.035
5932,-0.02
5933,-0.01
5934,0.005
5935,0.005
5936,0.01
5937,0.015
5938,0
5939,-0.005
5940,-0.02
5941,-0.025
5942,-0.025
5943,-0.015
5944,0
5945,0.005
5946,0.015
5947,0.02
5948,0
5949,-0.015
5950,-0.02
5951,-0.03
5952,-0.025
5953,-0.005
5954,-0.005
5955,0
5956,0.01
5957,0.015
5958,0.005
5959,-0.01
5960,-0.015
5961,-0.02
5962,-0.015
5963,-0.005
5964,-0.005
5965,-0.005
5966,-0.01
5967,-0.01
5968,-0.01
5969,-0.015
5970,-0.025
5971,-0.025
5972,-0.02
5973,-0.01
5974,-0.01
5975,-0.005
5976,-0.005
5977,-0.01
5978,-0.025
5979,-0.025
5980,-0.025
5981,-0.035
5982,-0.03
5983,-0.02
5984,-0.01
5985,-0.005
5986,-0.01
5987,-0.015
5988,-0.025
5989,-0.03
5990,-0.035
5991,-0.04
5992,-0.025
5993,-0.02
5994,-0.015
5995,-0.005
5996,0
5997,-0.01
5998,-0.025
5999,-0.03
6000,-0.045
6001,-0.045
6002,-0.045
6003,-0.035
6004,-0.04
6005,-0.025
6006,-0.01
6007,-0.025
6008,-0.04
6009,-0.04
6010,-0.03
6011,-0.035
6012,-0.04
6013,-0.025
6014,-0.02
6015,-0.015
6016,-0.005
6017,-0.01
6018,-0.025
6019,-0.04
6020,-0.045
6021,-0.04
6022,-0.02
6023,-0.015
6024,-0.01
6025,0
6026,-0.005
6027,-0.01
6028,-0.01
6029,-0.015
6030,0
6031,0.01
6032,0.025
6033,0.065
6034,0.07
6035,0.085
6036,0.1
6037,0.1
6038,0.09
6039,0.09
6040,0.095
6041,0.085
6042,0.1
6043,0.105
6044,0.11
6045,0.12
6046,0.125
6047,0.13
6048,0.145
6049,0.155
6050,0.145
6051,0.135
6052,0.15
6053,0.165
6054,0.18
6055,0.185
6056,0.175
6057,0.17
6058,0.165
6059,0.175
6060,0.17
6061,0.16
6062,0.17
6063,0.17
6064,0.17
6065,0.165
6066,0.16
6067,0.15
6068,0.135
6069,0.115
6070,0.115
6071,0.105
6072,0.11
6073,0.12
6074,0.125
6075,0.13
6076,0.14
6077,0.125
6078,0.125
6079,0.12
6080,0.11
6081,0.095
6082,0.095
6083,0.095
6084,0.105
6085,0.115
6086,0.12
6087,0.105
6088,0.095
6089,0.08
6090,0.075
6091,0.075
6092,0.09
6093,0.11
6094,0.115
6095,0.12
6096,0.125
6097,0.095
6098,0.08
6099,0.07
6100,0.06
6101,0.085
6102,0.1
6103,0.1
6104,0.105
6105,0.115
6106,0.105
6107,0.095
6108,0.085
6109,0.075
6110,0.07
6111,0.08
6112,0.075
6113,0.08
6114,0.09
6115,0.08
6116,0.09
6117,0.055
6118,0.045
6119,0.02
6120,0.02
6121,0.04
6122,0.07
6123,0.115
6124,0.175
6125,0.235
6126,0.28
6127,0.325
6128,0.385
6129,0.445
6130,0.555
6131,0.68
6132,0.82
6133,0.89
6134,0.86
6135,0.84
6136,0.775
6137,0.695
6138,0.595
6139,0.505
6140,0.395
6141,0.265
6142,0.155
6143,0.05
6144,0.01
6145,0.035
6146,0.04
6147,0.04
6148,0.055
6149,0.06
6150,0.075
6151,0.095
6152,0.12
6153,0.13
6154,0.125
6155,0.13
6156,0.12
6157,0.105
6158,0.09
6159,0.085
6160,0.09
6161,0.105
6162,0.11
6163,0.11
6164,0.12
6165,0.13
6166,0.125
6167,0.11
6168,0.09
6169,0.075
6170,0.08
6171,0.095
6172,0.115
6173,0.115
6174,0.115
6175,0.14
6176,0.11
6177,0.1
6178,0.095
6179,0.085
6180,0.1
6181,0.12
6182,0.13
6183,0.135
6184,0.14
6185,0.145
6186,0.13
6187,0.115
6188,0.11
6189,0.105
6190,0.11
6191,0.13
6192,0.14
6193,0.15
6194,0.155
6195,0.165
6196,0.135
6197,0.115
6198,0.11
6199,0.115
6200,0.11
6201,0.13
6202,0.135
6203,0.14
6204,0.155
6205,0.165
6206,0.16
6207,0.15
6208,0.145
6209,0.145
6210,0.135
6211,0.14
6212,0.165
6213,0.17
6214,0.175
6215,0.17
6216,0.17
6217,0.165
6218,0.175
6219,0.16
6220,0.165
6221,0.18
6222,0.21
6223,0.215
6224,0.225
6225,0.225
6226,0.215
6227,0.21
6228,0.22
6229,0.2
6230,0.225
6231,0.25
6232,0.255
6233,0.26
6234,0.27
6235,0.27
6236,0.27
6237,0.265
6238,0.265
6239,0.25
6240,0.265
6241,0.265
6242,0.28
6243,0.295
6244,0.295
6245,0.29
6246,0.29
6247,0.285
6248,0.28
6249,0.26
6250,0.26
6251,0.255
6252,0.26
6253,0.26
6254,0.27
6255,0.26
6256,0.235
6257,0.22
6258,0.19
6259,0.17
6260,0.17
6261,0.15
6262,0.155
6263,0.16
6264,0.15
6265,0.13
6266,0.12
6267,0.095
6268,0.095
6269,0.075
6270,0.08
6271,0.075
6272,0.075
6273,0.065
6274,0.065
6275,0.035
6276,0.03
6277,0.02
6278,0.015
6279,-0.005
6280,0
6281,0.01
6282,0.01
6283,0.01
6284,0.03
6285,0.015
6286,0.005
6287,-0.01
6288,-0.02
6289,-0.03
6290,-0.02
6291,-0.015
6292,-0.01
6293,-0.005
6294,0.01
6295,-0.01
6296,-0.005
6297,-0.025
6298,-0.055
6299,-0.04
6300,-0.035
6301,-0.01
6302,0
6303,0.005
6304,0.005
6305,-0.005
6306,-0.03
6307,-0.035
6308,-0.04
6309,-0.03
6310,-0.035
6311,-0.03
6312,-0.02
6313,-0.015
6314,-0.01
6315,-0.025
6316,-0.035
6317,-0.055
6318,-0.055
6319,-0.05
6320,-0.04
6321,-0.025
6322,-0.015
6323,-0.02
6324,-0.01
6325,-0.025
6326,-0.03
6327,-0.035
6328,-0.05
6329,-0.055
6330,-0.04
6331,-0.04
6332,-0.02
6333,-0.015
6334,-0.02
6335,-0.03
6336,-0.045
6337,-0.05
6338,-0.055
6339,-0.055
6340,-0.05
6341,-0.02
6342,-0.025
6343,-0.025
6344,-0.015
6345,-0.035
6346,-0.04
6347,-0.04
6348,-0.04
6349,-0.04
6350,-0.025
6351,-0.035
6352,-0.03
6353,-0.025
6354,-0.03
6355,-0.045
6356,-0.06
6357,-0.06
6358,-0.065
6359,-0.06
6360,-0.04
6361,-0.03
6362,-0.035
6363,-0.03
6364,-0.025
6365,-0.045
6366,-0.045
6367,-0.065
6368,-0.07
6369,-0.065
6370,-0.055
6371,-0.05
6372,-0.035
6373,-0.03
6374,-0.03
6375,-0.045
6376,-0.06
6377,-0.065
6378,-0.075
6379,-0.07
6380,-0.05
6381,-0.05
6382,-0.04
6383,-0.03
6384,-0.04
6385,-0.045
6386,-0.06
6387,-0.06
6388,-0.065
6389,-0.075
6390,-0.07
6391,-0.06
6392,-0.055
6393,-0.045
6394,-0.05
6395,-0.055
6396,-0.065
6397,-0.065
6398,-0.08
6399,-0.065
6400,-0.055
6401,-0.04
6402,-0.04
6403,-0.03
6404,-0.035
6405,-0.05
6406,-0.075
6407,-0.075
6408,-0.095
6409,-0.09
6410,-0.065
6411,-0.055
6412,-0.045
6413,-0.045
6414,-0.055
6415,-0.07
6416,-0.08
6417,-0.075
6418,-0.075
6419,-0.065
6420,-0.06
6421,-0.055
6422,-0.045
6423,-0.04
6424,-0.04
6425,-0.055
6426,-0.075
6427,-0.075
6428,-0.08
6429,-0.065
6430,-0.06
6431,-0.055
6432,-0.06
6433,-0.045
6434,-0.065
6435,-0.075
6436,-0.085
6437,-0.09
6438,-0.09
6439,-0.075
6440,-0.055
6441,-0.03
6442,-0.025
6443,-0.045
6444,-0.065
6445,-0.075
6446,-0.085
6447,-0.09
6448,-0.1
6449,-0.085
6450,-0.07
6451,-0.06
6452,-0.045
6453,-0.04
6454,-0.06
6455,-0.07
6456,-0.075
6457,-0.085
6458,-0.085
6459,-0.07
6460,-0.06
6461,-0.06
6462,-0.055
6463,-0.05
6464,-0.065
6465,-0.075
6466,-0.075
6467,-0.08
6468,-0.07
6469,-0.06
6470,-0.055
6471,-0.055
6472,-0.045
6473,-0.04
6474,-0.065
6475,-0.08
6476,-0.09
6477,-0.07
6478,-0.08
6479,-0.07
6480,-0.05
6481,-0.045
6482,-0.05
6483,-0.045
6484,-0.055
6485,-0.07
6486,-0.075
6487,-0.07
6488,-0.065
6489,-0.06
6490,-0.055
6491,-0.055
6492,-0.04
6493,-0.045
6494,-0.06
6495,-0.055
6496,-0.05
6497,-0.065
6498,-0.055
6499,-0.04
6500,-0.035
6501,-0.015
6502,-0.02
6503,-0.03
6504,-0.035
6505,-0.05
6506,-0.05
6507,-0.05
6508,-0.05
6509,-0.04
6510,-0.02
6511,0.005
6512,0.01
6513,0.015
6514,0
6515,0
6516,-0.015
6517,-0.02
6518,-0.02
6519,-0.02
6520,-0.005
6521,0.01
6522,0.045
6523,0.025
6524,0.005
6525,0
6526,-0.025
6527,-0.045
6528,-0.04
6529,-0.025
6530,-0.025
6531,-0.03
6532,-0.03
6533,-0.05
6534,-0.06
6535,-0.075
6536,-0.085
6537,-0.09
6538,-0.09
6539,-0.07
6540,-0.07
6541,-0.055
6542,-0.045
6543,-0.055
6544,-0.07
6545,-0.08
6546,-0.08
6547,-0.09
6548,-0.09
6549,-0.08
6550,-0.06
6551,-0.06
6552,-0.06
6553,-0.08
6554,-0.08
6555,-0.085
6556,-0.105
6557,-0.11
6558,-0.1
6559,-0.08
6560,-0.075
6561,-0.065
6562,-0.055
6563,-0.07
6564,-0.085
6565,-0.1
6566,-0.11
6567,-0.105
6568,-0.09
6569,-0.085
6570,-0.08
6571,-0.075
6572,-0.05
6573,-0.08
6574,-0.085
6575,-0.09
6576,-0.11
6577,-0.12
6578,-0.105
6579,-0.095
6580,-0.1
6581,-0.1
6582,-0.105
6583,-0.125
6584,-0.13
6585,-0.125
6586,-0.125
6587,-0.09
6588,-0.02
6589,0.045
6590,0.095
6591,0.155
6592,0.235
6593,0.275
6594,0.36
6595,0.46
6596,0.59
6597,0.67
6598,0.675
6599,0.675
6600,0.62
6601,0.575
6602,0.465
6603,0.38
6604,0.27
6605,0.135
6606,-0.01
6607,-0.13
6608,-0.18
6609,-0.185
6610,-0.15
6611,-0.135
6612,-0.11
6613,-0.085
6614,-0.07
6615,-0.07
6616,-0.075
6617,-0.06
6618,-0.05
6619,-0.05
6620,-0.035
6621,-0.03
6622,-0.035
6623,-0.05
6624,-0.06
6625,-0.06
6626,-0.06
6627,-0.065
6628,-0.05
6629,-0.04
6630,-0.03
6631,-0.04
6632,-0.03
6633,-0.045
6634,-0.065
6635,-0.06
6636,-0.065
6637,-0.04
6638,-0.04
6639,-0.02
6640,-0.01
6641,-0.015
6642,-0.015
6643,-0.03
6644,-0.045
6645,-0.04
6646,-0.055
6647,-0.045
6648,-0.03
6649,-0.01
6650,0.005
6651,0.01
6652,0
6653,-0.025
6654,-0.03
6655,-0.035
6656,-0.065
6657,-0.04
6658,-0.015
6659,-0.015
6660,-0.005
6661,0.015
6662,0.01
6663,0.005
6664,-0.005
6665,-0.01
6666,-0.015
6667,0
6668,-0.005
6669,0
6670,0.01
6671,0.025
6672,0.03
6673,0.015
6674,0.015
6675,0
6676,0.01
6677,0.01
6678,0.03
6679,0.045
6680,0.055
6681,0.065
6682,0.07
6683,0.065
6684,0.06
6685,0.05
6686,0.065
6687,0.07
6688,0.1
6689,0.11
6690,0.115
6691,0.13
6692,0.13
6693,0.12
6694,0.115
6695,0.115
6696,0.125
6697,0.14
6698,0.155
6699,0.17
6700,0.165
6701,0.175
6702,0.165
6703,0.17
6704,0.185
6705,0.18
6706,0.175
6707,0.195
6708,0.2
6709,0.21
6710,0.195
6711,0.215
6712,0.195
6713,0.195
6714,0.19
6715,0.17
6716,0.165
6717,0.17
6718,0.185
6719,0.17
6720,0.175
6721,0.17
6722,0.175
6723,0.13
6724,0.125
6725,0.12
6726,0.105
6727,0.105
6728,0.11
6729,0.105
6730,0.1
6731,0.09
6732,0.075
6733,0.065
6734,0.045
6735,0.025
6736,0.005
6737,0.005
6738,-0.005
6739,0.005
6740,0.005
6741,0
6742,-0.015
6743,-0.025
6744,-0.03
6745,-0.045
6746,-0.05
6747,-0.05
6748,-0.035
6749,-0.035
6750,-0.02
6751,-0.02
6752,-0.035
6753,-0.04
6754,-0.055
6755,-0.055
6756,-0.045
6757,-0.04
6758,-0.045
6759,-0.05
6760,-0.055
6761,-0.055
6762,-0.075
6763,-0.075
6764,-0.07
6765,-0.075
6766,-0.075
6767,-0.06
6768,-0.055
6769,-0.055
6770,-0.05
6771,-0.045
6772,-0.05
6773,-0.06
6774,-0.065
6775,-0.08
6776,-0.07
6777,-0.06
6778,-0.055
6779,-0.035
6780,-0.02
6781,-0.025
6782,-0.045
6783,-0.07
6784,-0.07
6785,-0.075
6786,-0.055
6787,-0.045
6788,-0.02
6789,-0.035
6790,-0.025
6791,-0.025
6792,-0.04
6793,-0.055
6794,-0.065
6795,-0.07
6796,-0.065
6797,-0.045
6798,-0.04
6799,-0.04
6800,-0.025
6801,-0.01
6802,-0.035
6803,-0.045
6804,-0.05
6805,-0.065
6806,-0.065
6807,-0.05
6808,-0.035
6809,-0.035
6810,-0.02
6811,-0.015
6812,-0.03
6813,-0.035
6814,-0.045
6815,-0.05
6816,-0.05
6817,-0.03
6818,-0.03
6819,-0.03
6820,-0.025
6821,-0.01
6822,-0.04
6823,-0.035
6824,-0.04
6825,-0.05
6826,-0.035
6827,-0.035
6828,-0.015
6829,-0.025
6830,-0.015
6831,-0.015
6832,-0.025
6833,-0.04
6834,-0.04
6835,-0.05
6836,-0.055
6837,-0.04
6838,-0.03
6839,-0.025
6840,-0.025
6841,-0.03
6842,-0.035
6843,-0.06
6844,-0.06
6845,-0.07
6846,-0.06
6847,-0.035
6848,-0.03
6849,-0.01
6850,-0.025
6851,-0.025
6852,-0.04
6853,-0.055
6854,-0.07
6855,-0.075
6856,-0.04
6857,-0.045
6858,-0.04
6859,-0.045
6860,-0.03
6861,-0.035
6862,-0.05
6863,-0.055
6864,-0.065
6865,-0.07
6866,-0.065
6867,-0.06
6868,-0.05
6869,-0.04
6870,-0.03
6871,-0.045
6872,-0.055
6873,-0.05
6874,-0.06
6875,-0.07
6876,-0.045
6877,-0.04
6878,-0.03
6879,-0.025
6880,-0.04
6881,-0.04
6882,-0.055
6883,-0.055
6884,-0.065
6885,-0.065
6886,-0.065
6887,-0.06
6888,-0.025
6889,-0.03
6890,-0.015
6891,-0.04
6892,-0.06
6893,-0.065
6894,-0.07
6895,-0.075
6896,-0.06
6897,-0.05
6898,-0.025
6899,-0.025
6900,-0.025
6901,-0.03
6902,-0.045
6903,-0.055
6904,-0.06
6905,-0.08
6906,-0.075
6907,-0.07
6908,-0.06
6909,-0.035
6910,-0.035
6911,-0.055
6912,-0.055
6913,-0.065
6914,-0.075
6915,-0.075
6916,-0.065
6917,-0.045
6918,-0.035
6919,-0.025
6920,-0.035
6921,-0.035
6922,-0.04
6923,-0.045
6924,-0.06
6925,-0.06
6926,-0.04
6927,-0.035
6928,-0.03
6929,-0.02
6930,-0.015
6931,-0.03
6932,-0.035
6933,-0.04
6934,-0.05
6935,-0.045
6936,-0.05
6937,-0.025
6938,0.005
6939,0.01
6940,0.02
6941,0.03
6942,0.035
6943,0.03
6944,0.035
6945,0.025
6946,0.04
6947,0.045
6948,0.055
6949,0.065
6950,0.075
6951,0.065
6952,0.055
6953,0.045
6954,0.04
6955,0.055
6956,0.065
6957,0.09
6958,0.105
6959,0.125
6960,0.13
6961,0.095
6962,0.09
6963,0.1
6964,0.09
6965,0.095
6966,0.1
6967,0.11
6968,0.125
6969,0.135
6970,0.145
6971,0.145
6972,0.13
6973,0.135
6974,0.12
6975,0.125
6976,0.125
6977,0.135
6978,0.145
6979,0.155
6980,0.17
6981,0.16
6982,0.165
6983,0.165
6984,0.155
6985,0.155
6986,0.16
6987,0.155
6988,0.165
6989,0.18
6990,0.165
6991,0.16
6992,0.16
6993,0.16
6994,0.14
6995,0.13
6996,0.14
6997,0.14
6998,0.135
6999,0.135
7000,0.13
7001,0.11
7002,0.11
7003,0.095
7004,0.09
7005,0.095
7006,0.105
7007,0.12
7008,0.125
7009,0.12
7010,0.11
7011,0.105
7012,0.09
7013,0.085
7014,0.07
7015,0.085
7016,0.105
7017,0.1
7018,0.105
7019,0.1
7020,0.095
7021,0.08
7022,0.07
7023,0.075
7024,0.055
7025,0.07
7026,0.07
7027,0.08
7028,0.085
7029,0.1
7030,0.085
7031,0.065
7032,0.06
7033,0.05
7034,0.05
7035,0.055
7036,0.07
7037,0.08
7038,0.085
7039,0.085
7040,0.07
7041,0.065
7042,0.065
7043,0.045
7044,0.065
7045,0.065
7046,0.065
7047,0.07
7048,0.06
7049,0.07
7050,0.06
7051,0.035
7052,0.03
7053,0.04
7054,0.055
7055,0.085
7056,0.13
7057,0.185
7058,0.235
7059,0.29
7060,0.33
7061,0.395
7062,0.5
7063,0.605
7064,0.705
7065,0.755
7066,0.755
7067,0.74
7068,0.695
7069,0.615
7070,0.515
7071,0.43
7072,0.325
7073,0.19
7074,0.07
7075,-0.015
7076,-0.045
7077,-0.04
7078,-0.02
7079,0.015
7080,0.025
7081,0.025
7082,0.04
7083,0.06
7084,0.085
7085,0.09
7086,0.1
7087,0.12
7088,0.11
7089,0.09
7090,0.075
7091,0.07
7092,0.065
7093,0.07
7094,0.07
7095,0.085
7096,0.09
7097,0.105
7098,0.105
7099,0.11
7100,0.095
7101,0.095
7102,0.085
7103,0.085
7104,0.085
7105,0.1
7106,0.11
7107,0.12
7108,0.13
7109,0.11
7110,0.09
7111,0.075
7112,0.07
7113,0.07
7114,0.075
7115,0.095
7116,0.115
7117,0.125
7118,0.13
7119,0.125
7120,0.115
7121,0.105
7122,0.1
7123,0.105
7124,0.11
7125,0.12
7126,0.125
7127,0.125
7128,0.13
7129,0.13
7130,0.105
7131,0.105
7132,0.12
7133,0.105
7134,0.11
7135,0.12
7136,0.13
7137,0.145
7138,0.165
7139,0.15
7140,0.14
7141,0.13
7142,0.125
7143,0.13
7144,0.13
7145,0.14
7146,0.14
7147,0.145
7148,0.165
7149,0.17
7150,0.16
7151,0.16
7152,0.165
7153,0.16
7154,0.185
7155,0.18
7156,0.195
7157,0.2
7158,0.21
7159,0.205
7160,0.2
7161,0.2
7162,0.2
7163,0.2
7164,0.215
7165,0.225
7166,0.25
7167,0.26
7168,0.27
7169,0.255
7170,0.255
7171,0.26
7172,0.26
7173,0.245
7174,0.26
7175,0.27
7176,0.265
7177,0.27
7178,0.255
7179,0.265
7180,0.26
7181,0.245
7182,0.24
7183,0.235
7184,0.24
7185,0.255
7186,0.235
7187,0.24
7188,0.24
7189,0.22
7190,0.2
7191,0.18
7192,0.165
7193,0.15
7194,0.155
7195,0.155
7196,0.15
7197,0.135
7198,0.12
7199,0.09
7200,0.085
7201,0.07
7202,0.05
7203,0.04
7204,0.045
7205,0.045
7206,0.04
7207,0.05
7208,0.045
7209,0.03
7210,0.01
7211,-0.005
7212,-0.015
7213,-0.025
7214,-0.015
7215,-0.01
7216,0
7217,0.005
7218,0.005
7219,-0.02
7220,-0.03
7221,-0.045
7222,-0.06
7223,-0.04
7224,-0.04
7225,-0.02
7226,-0.015
7227,-0.015
7228,-0.01
7229,-0.02
7230,-0.05
7231,-0.055
7232,-0.075
7233,-0.06
7234,-0.055
7235,-0.035
7236,-0.03
7237,-0.03
7238,-0.025
7239,-0.04
7240,-0.06
7241,-0.055
7242,-0.055
7243,-0.065
7244,-0.06
7245,-0.05
7246,-0.03
7247,-0.02
7248,-0.02
7249,-0.03
7250,-0.04
7251,-0.05
7252,-0.065
7253,-0.07
7254,-0.055
7255,-0.035
7256,-0.025
7257,-0.02
7258,-0.015
7259,-0.03
7260,-0.045
7261,-0.045
7262,-0.05
7263,-0.04
7264,-0.025
7265,-0.015
7266,-0.015
7267,0
7268,-0.01
7269,-0.035
7270,-0.055
7271,-0.04
7272,-0.065
7273,-0.04
7274,-0.05
7275,-0.035
7276,-0.01
7277,0.005
7278,-0.02
7279,-0.04
7280,-0.04
7281,-0.04
7282,-0.065
7283,-0.045
7284,-0.035
7285,-0.025
7286,-0.025
7287,-0.01
7288,-0.015
7289,-0.035
7290,-0.035
7291,-0.045
7292,-0.05
7293,-0.05
7294,-0.04
7295,-0.04
7296,-0.045
7297,-0.025
7298,-0.04
7299,-0.045
7300,-0.055
7301,-0.07
7302,-0.07
7303,-0.06
7304,-0.045
7305,-0.035
7306,-0.03
7307,-0.025
7308,-0.025
7309,-0.035
7310,-0.05
7311,-0.075
7312,-0.1
7313,-0.07
7314,-0.05
7315,-0.05
7316,-0.04
7317,-0.035
7318,-0.04
7319,-0.05
7320,-0.06
7321,-0.075
7322,-0.07
7323,-0.05
7324,-0.05
7325,-0.05
7326,-0.04
7327,-0.035
7328,-0.045
7329,-0.06
7330,-0.07
7331,-0.075
7332,-0.08
7333,-0.075
7334,-0.04
7335,-0.045
7336,-0.04
7337,-0.035
7338,-0.055
7339,-0.055
7340,-0.065
7341,-0.075
7342,-0.075
7343,-0.06
7344,-0.065
7345,-0.06
7346,-0.055
7347,-0.045
7348,-0.045
7349,-0.06
7350,-0.08
7351,-0.07
7352,-0.075
7353,-0.06
7354,-0.055
7355,-0.065
7356,-0.045
7357,-0.045
7358,-0.05
7359,-0.065
7360,-0.065
7361,-0.075
7362,-0.08
7363,-0.065
7364,-0.055
7365,-0.05
7366,-0.05
7367,-0.04
7368,-0.06
7369,-0.065
7370,-0.075
7371,-0.085
7372,-0.08
7373,-0.065
7374,-0.06
7375,-0.055
7376,-0.05
7377,-0.035
7378,-0.065
7379,-0.07
7380,-0.055
7381,-0.085
7382,-0.07
7383,-0.065
7384,-0.045
7385,-0.06
7386,-0.05
7387,-0.045
7388,-0.07
7389,-0.08
7390,-0.075
7391,-0.085
7392,-0.09
7393,-0.07
7394,-0.05
7395,-0.055
7396,-0.045
7397,-0.04
7398,-0.05
7399,-0.075
7400,-0.075
7401,-0.09
7402,-0.09
7403,-0.075
7404,-0.07
7405,-0.06
7406,-0.045
7407,-0.05
7408,-0.065
7409,-0.08
7410,-0.075
7411,-0.075
7412,-0.065
7413,-0.065
7414,-0.065
7415,-0.065
7416,-0.05
7417,-0.065
7418,-0.075
7419,-0.075
7420,-0.075
7421,-0.085
7422,-0.075
7423,-0.06
7424,-0.04
7425,-0.04
7426,-0.03
7427,-0.03
7428,-0.045
7429,-0.055
7430,-0.055
7431,-0.05
7432,-0.045
7433,-0.04
7434,-0.035
7435,-0.015
7436,0
7437,-0.005
7438,-0.015
7439,-0.02
7440,-0.02
7441,-0.015
7442,0
7443,-0.01
7444,0.005
7445,0.01
7446,0.01
7447,-0.005
7448,-0.01
7449,-0.015
7450,-0.015
7451,-0.025
7452,-0.02
7453,-0.01
7454,0.01
7455,0
7456,-0.005
7457,-0.03
7458,-0.045
7459,-0.06
7460,-0.065
7461,-0.08
7462,-0.08
7463,-0.07
7464,-0.065
7465,-0.05
7466,-0.045
7467,-0.06
7468,-0.065
7469,-0.075
7470,-0.09
7471,-0.105
7472,-0.085
7473,-0.065
7474,-0.065
7475,-0.07
7476,-0.055
7477,-0.06
7478,-0.075
7479,-0.095
7480,-0.105
7481,-0.12
7482,-0.11
7483,-0.075
7484,-0.08
7485,-0.07
7486,-0.06
7487,-0.08
7488,-0.095
7489,-0.11
7490,-0.1
7491,-0.09
7492,-0.095
7493,-0.085
7494,-0.075
7495,-0.075
7496,-0.065
7497,-0.08
7498,-0.1
7499,-0.1
7500,-0.1
7501,-0.1
7502,-0.09
7503,-0.09
7504,-0.08
7505,-0.095
7506,-0.09
7507,-0.1
7508,-0.105
7509,-0.125
7510,-0.145
7511,-0.145
7512,-0.115
7513,-0.075
7514,-0.02
7515,0.035
7516,0.09
7517,0.12
7518,0.18
7519,0.245
7520,0.325
7521,0.425
7522,0.555
7523,0.64
7524,0.65
7525,0.645
7526,0.595
7527,0.52
7528,0.425
7529,0.335
7530,0.245
7531,0.13
7532,0.02
7533,-0.09
7534,-0.165
7535,-0.17
7536,-0.145
7537,-0.125
7538,-0.125
7539,-0.115
7540,-0.105
7541,-0.095
7542,-0.07
7543,-0.06
7544,-0.04
7545,-0.04
7546,-0.035
7547,-0.055
7548,-0.07
7549,-0.085
7550,-0.085
7551,-0.08
7552,-0.065
7553,-0.05
7554,-0.035
7555,-0.025
7556,-0.025
7557,-0.03
7558,-0.025
7559,-0.06
7560,-0.075
7561,-0.07
7562,-0.06
7563,-0.05
7564,-0.05
7565,-0.03
7566,-0.03
7567,-0.04
7568,-0.05
7569,-0.05
7570,-0.06
7571,-0.05
7572,-0.045
7573,-0.03
7574,-0.015
7575,-0.01
7576,-0.03
7577,-0.035
7578,-0.035
7579,-0.04
7580,-0.04
7581,-0.03
7582,-0.015
7583,-0.01
7584,-0.005
7585,0.01
7586,0.005
7587,-0.02
7588,-0.03
7589,-0.04
7590,-0.045
7591,-0.045
7592,-0.02
7593,-0.01
7594,0.005
7595,0.02
7596,0.015
7597,0
7598,-0.005
7599,-0.015
7600,-0.01
7601,0.005
7602,0.015
7603,0.02
7604,0.03
7605,0.05
7606,0.035
7607,0.02
7608,0.025
7609,0.03
7610,0.03
7611,0.05
7612,0.06
7613,0.08
7614,0.085
7615,0.11
7616,0.1
7617,0.08
7618,0.075
7619,0.07
7620,0.08
7621,0.095
7622,0.115
7623,0.125
7624,0.15
7625,0.16
7626,0.16
7627,0.16
7628,0.145
7629,0.145
7630,0.135
7631,0.16
7632,0.175
7633,0.185
7634,0.19
7635,0.195
7636,0.19
7637,0.185
7638,0.175
7639,0.17
7640,0.165
7641,0.18
7642,0.175
7643,0.175
7644,0.17
7645,0.175
7646,0.155
7647,0.145
7648,0.13
7649,0.115
7650,0.105
7651,0.11
7652,0.115
7653,0.11
7654,0.11
7655,0.105
7656,0.08
7657,0.065
7658,0.045
7659,0.015
7660,0.01
7661,0.015
7662,0.015
7663,0.015
7664,0
7665,0.015
7666,0.015
7667,-0.02
7668,-0.035
7669,-0.045
7670,-0.04
7671,-0.04
7672,-0.035
7673,-0.04
7674,-0.025
7675,-0.02
7676,-0.045
7677,-0.05
7678,-0.065
7679,-0.07
7680,-0.065
7681,-0.045
7682,-0.045
7683,-0.055
7684,-0.045
7685,-0.045
7686,-0.055
7687,-0.07
7688,-0.08
7689,-0.085
7690,-0.085
7691,-0.085
7692,-0.06
7693,-0.065
7694,-0.045
7695,-0.05
7696,-0.06
7697,-0.075
7698,-0.09
7699,-0.085
7700,-0.07
7701,-0.065
7702,-0.06
7703,-0.04
7704,-0.045
7705,-0.05
7706,-0.055
7707,-0.06
7708,-0.07
7709,-0.08
7710,-0.075
7711,-0.06
7712,-0.065
7713,-0.05
7714,-0.03
7715,-0.04
7716,-0.055
7717,-0.055
7718,-0.055
7719,-0.06
7720,-0.06
7721,-0.045
7722,-0.025
7723,-0.02
7724,-0.01
7725,-0.025
7726,-0.055
7727,-0.06
7728,-0.065
7729,-0.065
7730,-0.055
7731,-0.045
7732,-0.035
7733,-0.025
7734,-0.025
7735,-0.035
7736,-0.05
7737,-0.045
7738,-0.05
7739,-0.055
7740,-0.05
7741,-0.04
7742,-0.025
7743,-0.02
7744,-0.015
7745,-0.02
7746,-0.035
7747,-0.035
7748,-0.045
7749,-0.055
7750,-0.045
7751,-0.035
7752,-0.035
7753,-0.03
7754,-0.025
7755,-0.03
7756,-0.045
7757,-0.04
7758,-0.05
7759,-0.055
7760,-0.06
7761,-0.04
7762,-0.03
7763,-0.03
7764,-0.03
7765,-0.05
7766,-0.055
7767,-0.06
7768,-0.06
7769,-0.07
7770,-0.06
7771,-0.05
7772,-0.045
7773,-0.04
7774,-0.03
7775,-0.04
7776,-0.06
7777,-0.06
7778,-0.065
7779,-0.07
7780,-0.065
7781,-0.055
7782,-0.045
7783,-0.045
7784,-0.045
7785,-0.055
7786,-0.05
7787,-0.055
7788,-0.07
7789,-0.07
7790,-0.065
7791,-0.06
7792,-0.045
7793,-0.04
7794,-0.05
7795,-0.055
7796,-0.05
7797,-0.06
7798,-0.07
7799,-0.07
7800,-0.06
7801,-0.055
7802,-0.055
7803,-0.045
7804,-0.055
7805,-0.065
7806,-0.07
7807,-0.065
7808,-0.075
7809,-0.085
7810,-0.07
7811,-0.06
7812,-0.05
7813,-0.05
7814,-0.045
7815,-0.055
7816,-0.065
7817,-0.055
7818,-0.065
7819,-0.07
7820,-0.055
7821,-0.055
7822,-0.06
7823,-0.04
7824,-0.03
7825,-0.05
7826,-0.065
7827,-0.085
7828,-0.065
7829,-0.07
7830,-0.06
7831,-0.04
7832,-0.045
7833,-0.045
7834,-0.04
7835,-0.055
7836,-0.065
7837,-0.08
7838,-0.09
7839,-0.08
7840,-0.065
7841,-0.05
7842,-0.05
7843,-0.05
7844,-0.055
7845,-0.07
7846,-0.06
7847,-0.065
7848,-0.065
7849,-0.08
7850,-0.065
7851,-0.055
7852,-0.045
7853,-0.045
7854,-0.045
7855,-0.055
7856,-0.065
7857,-0.065
7858,-0.075
7859,-0.075
7860,-0.065
7861,-0.04
7862,-0.04
7863,-0.035
7864,-0.04
7865,-0.045
7866,-0.06
7867,-0.055
7868,-0.075
7869,-0.07
7870,-0.055
7871,-0.035
7872,-0.045
7873,-0.045
7874,-0.055
7875,-0.065
7876,-0.07
7877,-0.075
7878,-0.09
7879,-0.07
7880,-0.055
7881,-0.05
7882,-0.04
7883,-0.04
7884,-0.04
7885,-0.065
7886,-0.06
7887,-0.085
7888,-0.075
7889,-0.075
7890,-0.05
7891,-0.03
7892,-0.01
7893,0
7894,-0.015
7895,-0.025
7896,-0.04
7897,-0.05
7898,-0.045
7899,-0.035
7900,-0.02
7901,-0.01
7902,0
7903,0.02
7904,-0.01
7905,-0.02
7906,-0.01
7907,-0.01
7908,-0.015
7909,0
7910,0.025
7911,0.03
7912,0.04
7913,0.04
7914,0.05
7915,0.055
7916,0.07
7917,0.07
7918,0.075
7919,0.085
7920,0.105
7921,0.12
7922,0.13
7923,0.135
7924,0.115
7925,0.11
7926,0.1
7927,0.085
7928,0.08
7929,0.1
7930,0.1
7931,0.11
7932,0.105
7933,0.115
7934,0.105
7935,0.105
7936,0.09
7937,0.095
7938,0.08
7939,0.085
7940,0.105
7941,0.105
7942,0.12
7943,0.12
7944,0.11
7945,0.09
7946,0.09
7947,0.08
7948,0.065
7949,0.075
7950,0.09
7951,0.095
7952,0.095
7953,0.12
7954,0.1
7955,0.09
7956,0.1
7957,0.085
7958,0.07
7959,0.07
7960,0.085
7961,0.1
7962,0.1
7963,0.09
7964,0.1
7965,0.085
7966,0.085
7967,0.07
7968,0.07
7969,0.075
7970,0.075
7971,0.07
7972,0.085
7973,0.07
7974,0.07
7975,0.055
7976,0.045
7977,0.03
7978,0.03
7979,0.05
7980,0.08
7981,0.14
7982,0.215
7983,0.26
7984,0.305
7985,0.365
7986,0.415
7987,0.495
7988,0.595
7989,0.73
7990,0.85
7991,0.865
7992,0.86
7993,0.81
7994,0.73
7995,0.635
7996,0.545
7997,0.425
7998,0.315
7999,0.205
8000,0.09
8001,0.01
8002,0.01
8003,0.04
8004,0.03
8005,0.04
8006,0.05
8007,0.07
8008,0.09
8009,0.115
8010,0.12
8011,0.13
8012,0.13
8013,0.12
8014,0.11
8015,0.105
8016,0.095
8017,0.085
8018,0.09
8019,0.1
8020,0.105
8021,0.11
8022,0.125
8023,0.125
8024,0.11
8025,0.105
8026,0.105
8027,0.085
8028,0.09
8029,0.105
8030,0.105
8031,0.11
8032,0.115
8033,0.12
8034,0.105
8035,0.095
8036,0.095
8037,0.085
8038,0.095
8039,0.11
8040,0.12
8041,0.125
8042,0.135
8043,0.145
8044,0.13
8045,0.11
8046,0.105
8047,0.11
8048,0.115
8049,0.13
8050,0.125
8051,0.145
8052,0.16
8053,0.15
8054,0.135
8055,0.12
8056,0.12
8057,0.12
8058,0.12
8059,0.135
8060,0.145
8061,0.165
8062,0.175
8063,0.165
8064,0.16
8065,0.165
8066,0.165
8067,0.15
8068,0.145
8069,0.155
8070,0.155
8071,0.155
8072,0.16
8073,0.145
8074,0.165
8075,0.175
8076,0.165
8077,0.155
8078,0.175
8079,0.19
8080,0.2
8081,0.225
8082,0.22
8083,0.23
8084,0.23
8085,0.24
8086,0.23
8087,0.225
8088,0.245
8089,0.255
8090,0.26
8091,0.29
8092,0.285
8093,0.27
8094,0.265
8095,0.295
8096,0.315
8097,0.3
8098,0.3
8099,0.3
8100,0.31
8101,0.325
8102,0.32
8103,0.325
8104,0.315
8105,0.315
8106,0.305
8107,0.3
8108,0.305
8109,0.315
8110,0.31
8111,0.31
8112,0.305
8113,0.295
8114,0.285
8115,0.27
8116,0.24
8117,0.225
8118,0.22
8119,0.22
8120,0.22
8121,0.21
8122,0.195
8123,0.165
8124,0.15
8125,0.14
8126,0.135
8127,0.1
8128,0.1
8129,0.095
8130,0.12
8131,0.105
8132,0.1
8133,0.08
8134,0.05
8135,0.035
8136,0.025
8137,0.015
8138,0.005
8139,0.02
8140,0.02
8141,0.02
8142,0.03
8143,0.015
8144,-0.01
8145,-0.035
8146,-0.03
8147,-0.02
8148,-0.015
8149,-0.01
8150,0
8151,0.005
8152,0.005
8153,-0.02
8154,-0.03
8155,-0.045
8156,-0.04
8157,-0.035
8158,-0.03
8159,-0.03
8160,-0.015
8161,-0.015
8162,-0.01
8163,-0.035
8164,-0.045
8165,-0.045
8166,-0.055
8167,-0.055
8168,-0.03
8169,-0.025
8170,-0.025
8171,-0.03
8172,-0.04
8173,-0.055
8174,-0.065
8175,-0.07
8176,-0.075
8177,-0.07
8178,-0.055
8179,-0.035
8180,-0.03
8181,-0.025
8182,-0.04
8183,-0.055
8184,-0.07
8185,-0.09
8186,-0.085
8187,-0.065
8188,-0.06
8189,-0.045
8190,-0.045
8191,-0.03
8192,-0.04
8193,-0.055
8194,-0.06
8195,-0.06
8196,-0.07
8197,-0.055
8198,-0.05
8199,-0.035
8200,-0.03
8201,-0.025
8202,-0.03
8203,-0.045
8204,-0.05
8205,-0.06
8206,-0.065
8207,-0.055
8208,-0.045
8209,-0.035
8210,-0.035
8211,-0.03
8212,-0.05
8213,-0.05
8214,-0.045
8215,-0.05
8216,-0.055
8217,-0.04
8218,-0.03
8219,-0.045
8220,-0.04
8221,-0.055
8222,-0.075
8223,-0.095
8224,-0.1
8225,-0.095
8226,-0.09
8227,-0.08
8228,-0.08
8229,-0.05
8230,-0.045
8231,-0.05
8232,-0.05
8233,-0.07
8234,-0.08
8235,-0.085
8236,-0.095
8237,-0.075
8238,-0.065
8239,-0.05
8240,-0.045
8241,-0.05
8242,-0.055
8243,-0.075
8244,-0.08
8245,-0.09
8246,-0.09
8247,-0.08
8248,-0.08
8249,-0.075
8250,-0.075
8251,-0.06
8252,-0.075
8253,-0.09
8254,-0.09
8255,-0.085
8256,-0.095
8257,-0.095
8258,-0.08
8259,-0.085
8260,-0.09
8261,-0.08
8262,-0.085
8263,-0.1
8264,-0.13
8265,-0.115
8266,-0.115
8267,-0.095
8268,-0.09
8269,-0.09
8270,-0.08
8271,-0.08
8272,-0.085
8273,-0.08
8274,-0.105
8275,-0.115
8276,-0.115
8277,-0.11
8278,-0.095
8279,-0.09
8280,-0.08
8281,-0.08
8282,-0.085
8283,-0.095
8284,-0.1
8285,-0.115
8286,-0.12
8287,-0.11
8288,-0.115
8289,-0.095
8290,-0.08
8291,-0.08
8292,-0.085
8293,-0.1
8294,-0.115
8295,-0.105
8296,-0.115
8297,-0.11
8298,-0.115
8299,-0.1
8300,-0.1
8301,-0.095
8302,-0.095
8303,-0.11
8304,-0.11
8305,-0.12
8306,-0.105
8307,-0.085
8308,-0.09
8309,-0.08
8310,-0.095
8311,-0.095
8312,-0.1
8313,-0.125
8314,-0.12
8315,-0.125
8316,-0.1
8317,-0.09
8318,-0.105
8319,-0.105
8320,-0.085
8321,-0.08
8322,-0.09
8323,-0.11
8324,-0.1
8325,-0.105
8326,-0.12
8327,-0.1
8328,-0.095
8329,-0.085
8330,-0.085
8331,-0.085
8332,-0.095
8333,-0.11
8334,-0.11
8335,-0.115
8336,-0.11
8337,-0.075
8338,-0.07
8339,-0.065
8340,-0.055
8341,-0.045
8342,-0.07
8343,-0.08
8344,-0.08
8345,-0.08
8346,-0.085
8347,-0.08
8348,-0.07
8349,-0.07
8350,-0.055
8351,-0.045
8352,-0.055
8353,-0.065
8354,-0.065
8355,-0.065
8356,-0.045
8357,-0.05
8358,-0.025
8359,-0.04
8360,-0.01
8361,-0.035
8362,-0.04
8363,-0.05
8364,-0.055
8365,-0.065
8366,-0.055
8367,-0.045
8368,-0.045
8369,-0.05
8370,-0.035
8371,-0.075
8372,-0.095
8373,-0.095
8374,-0.1
8375,-0.115
8376,-0.125
8377,-0.11
8378,-0.08
8379,-0.105
8380,-0.11
8381,-0.115
8382,-0.115
8383,-0.11
8384,-0.11
8385,-0.13
8386,-0.12
8387,-0.1
8388,-0.12
8389,-0.095
8390,-0.095
8391,-0.11
8392,-0.11
8393,-0.115
8394,-0.125
8395,-0.135
8396,-0.135
8397,-0.115
8398,-0.11
8399,-0.115
8400,-0.105
8401,-0.125
8402,-0.135
8403,-0.13
8404,-0.13
8405,-0.135
8406,-0.13
8407,-0.11
8408,-0.105
8409,-0.1
8410,-0.11
8411,-0.115
8412,-0.135
8413,-0.135
8414,-0.135
8415,-0.135
8416,-0.155
8417,-0.145
8418,-0.13
8419,-0.13
8420,-0.14
8421,-0.16
8422,-0.185
8423,-0.175
8424,-0.165
8425,-0.125
8426,-0.06
8427,-0.005
8428,0.045
8429,0.105
8430,0.18
8431,0.245
8432,0.33
8433,0.435
8434,0.515
8435,0.555
8436,0.555
8437,0.525
8438,0.48
8439,0.415
8440,0.36
8441,0.255
8442,0.135
8443,-0.01
8444,-0.115
8445,-0.195
8446,-0.215
8447,-0.215
8448,-0.19
8449,-0.165
8450,-0.16
8451,-0.15
8452,-0.125
8453,-0.105
8454,-0.11
8455,-0.09
8456,-0.09
8457,-0.08
8458,-0.08
8459,-0.08
8460,-0.085
8461,-0.09
8462,-0.105
8463,-0.115
8464,-0.115
8465,-0.115
8466,-0.095
8467,-0.095
8468,-0.095
8469,-0.075
8470,-0.085
8471,-0.095
8472,-0.095
8473,-0.09
8474,-0.105
8475,-0.09
8476,-0.065
8477,-0.075
8478,-0.075
8479,-0.065
8480,-0.06
8481,-0.07
8482,-0.09
8483,-0.095
8484,-0.1
8485,-0.09
8486,-0.065
8487,-0.06
8488,-0.055
8489,-0.03
8490,-0.055
8491,-0.07
8492,-0.07
8493,-0.075
8494,-0.07
8495,-0.07
8496,-0.06
8497,-0.055
8498,-0.05
8499,-0.04
8500,-0.055
8501,-0.05
8502,-0.045
8503,-0.055
8504,-0.06
8505,-0.04
8506,-0.03
8507,-0.03
8508,-0.02
8509,-0.02
8510,-0.035
8511,-0.035
8512,-0.035
8513,-0.035
8514,-0.04
8515,-0.035
8516,-0.005
8517,0.02
8518,0.02
8519,0.02
8520,0.01
8521,0.015
8522,0.01
8523,0.01
8524,0.015
8525,0.02
8526,0.025
8527,0.02
8528,0.035
8529,0.055
8530,0.065
8531,0.055
8532,0.06
8533,0.06
8534,0.07
8535,0.1
8536,0.115
8537,0.115
8538,0.105
8539,0.125
8540,0.125
8541,0.115
8542,0.105
8543,0.115
8544,0.11
8545,0.125
8546,0.125
8547,0.13
8548,0.145
8549,0.15
8550,0.135
8551,0.13
8552,0.13
8553,0.115
8554,0.11
8555,0.13
8556,0.135
8557,0.135
8558,0.13
8559,0.13
8560,0.115
8561,0.085
8562,0.075
8563,0.065
8564,0.06
8565,0.055
8566,0.05
8567,0.03
8568,0.04
8569,0.03
8570,0.02
8571,-0.015
8572,-0.025
8573,-0.03
8574,-0.03
8575,-0.03
8576,-0.03
8577,-0.03
8578,-0.02
8579,-0.04
8580,-0.05
8581,-0.075
8582,-0.085
8583,-0.08
8584,-0.08
8585,-0.065
8586,-0.07
8587,-0.065
8588,-0.055
8589,-0.075
8590,-0.09
8591,-0.115
8592,-0.1
8593,-0.11
8594,-0.115
8595,-0.105
8596,-0.095
8597,-0.09
8598,-0.075
8599,-0.06
8600,-0.095
8601,-0.1
8602,-0.125
8603,-0.115
8604,-0.115
8605,-0.1
8606,-0.1
8607,-0.1
8608,-0.09
8609,-0.09
8610,-0.1
8611,-0.11
8612,-0.105
8613,-0.115
8614,-0.105
8615,-0.09
8616,-0.08
8617,-0.075
8618,-0.075
8619,-0.095
8620,-0.1
8621,-0.105
8622,-0.12
8623,-0.12
8624,-0.115
8625,-0.095
8626,-0.095
8627,-0.09
8628,-0.07
8629,-0.095
8630,-0.095
8631,-0.09
8632,-0.105
8633,-0.11
8634,-0.09
8635,-0.07
8636,-0.07
8637,-0.07
8638,-0.07
8639,-0.085
8640,-0.1
8641,-0.1
8642,-0.1
8643,-0.11
8644,-0.11
8645,-0.09
8646,-0.09
8647,-0.07
8648,-0.07
8649,-0.075
8650,-0.095
8651,-0.11
8652,-0.1
8653,-0.1
8654,-0.095
8655,-0.095
8656,-0.08
8657,-0.075
8658,-0.05
8659,-0.065
8660,-0.085
8661,-0.09
8662,-0.11
8663,-0.115
8664,-0.1
8665,-0.095
8666,-0.085
8667,-0.065
8668,-0.06
8669,-0.065
8670,-0.095
8671,-0.12
8672,-0.1
8673,-0.1
8674,-0.105
8675,-0.085
8676,-0.075
8677,-0.075
8678,-0.07
8679,-0.085
8680,-0.1
8681,-0.115
8682,-0.12
8683,-0.115
8684,-0.1
8685,-0.08
8686,-0.09
8687,-0.09
8688,-0.07
8689,-0.095
8690,-0.115
8691,-0.115
8692,-0.115
8693,-0.12
8694,-0.115
8695,-0.095
8696,-0.1
8697,-0.095
8698,-0.075
8699,-0.095
8700,-0.11
8701,-0.125
8702,-0.12
8703,-0.1
8704,-0.115
8705,-0.11
8706,-0.1
8707,-0.08
8708,-0.095
8709,-0.095
8710,-0.11
8711,-0.13
8712,-0.12
8713,-0.125
8714,-0.12
8715,-0.11
8716,-0.105
8717,-0.095
8718,-0.1
8719,-0.105
8720,-0.12
8721,-0.12
8722,-0.125
8723,-0.12
8724,-0.105
8725,-0.095
8726,-0.095
8727,-0.09
8728,-0.1
8729,-0.105
8730,-0.115
8731,-0.115
8732,-0.14
8733,-0.135
8734,-0.12
8735,-0.12
8736,-0.11
8737,-0.105
8738,-0.095
8739,-0.115
8740,-0.13
8741,-0.13
8742,-0.115
8743,-0.125
8744,-0.105
8745,-0.105
8746,-0.095
8747,-0.095
8748,-0.11
8749,-0.105
8750,-0.105
8751,-0.115
8752,-0.135
8753,-0.145
8754,-0.115
8755,-0.1
8756,-0.11
8757,-0.095
8758,-0.095
8759,-0.11
8760,-0.115
8761,-0.12
8762,-0.13
8763,-0.14
8764,-0.125
8765,-0.115
8766,-0.1
8767,-0.1
8768,-0.11
8769,-0.105
8770,-0.105
8771,-0.1
8772,-0.125
8773,-0.105
8774,-0.08
8775,-0.08
8776,-0.06
8777,-0.065
8778,-0.065
8779,-0.08
8780,-0.095
8781,-0.1
8782,-0.11
8783,-0.105
8784,-0.075
8785,-0.05
8786,-0.05
8787,-0.045
8788,-0.05
8789,-0.065
8790,-0.07
8791,-0.055
8792,-0.065
8793,-0.055
8794,-0.06
8795,-0.04
8796,-0.035
8797,-0.03
8798,-0.045
8799,-0.06
8800,-0.065
8801,-0.065
8802,-0.075
8803,-0.075
8804,-0.075
8805,-0.075
8806,-0.05
8807,-0.07
8808,-0.095
8809,-0.095
8810,-0.11
8811,-0.115
8812,-0.135
8813,-0.11
8814,-0.105
8815,-0.115
8816,-0.105
8817,-0.1
8818,-0.105
8819,-0.115
8820,-0.135
8821,-0.14
8822,-0.13
8823,-0.13
8824,-0.12
8825,-0.115
8826,-0.1
8827,-0.095
8828,-0.105
8829,-0.12
8830,-0.12
8831,-0.12
8832,-0.15
8833,-0.13
8834,-0.12
8835,-0.115
8836,-0.135
8837,-0.12
8838,-0.11
8839,-0.11
8840,-0.115
8841,-0.13
8842,-0.135
8843,-0.135
8844,-0.125
8845,-0.105
8846,-0.11
8847,-0.11
8848,-0.135
8849,-0.135
8850,-0.15
8851,-0.16
8852,-0.16
8853,-0.145
8854,-0.15
8855,-0.17
8856,-0.15
8857,-0.135
8858,-0.115
8859,-0.08
8860,-0.04
8861,0
8862,0.03
8863,0.095
8864,0.155
8865,0.24
8866,0.345
8867,0.415
8868,0.5
8869,0.485
8870,0.465
8871,0.395
8872,0.35
8873,0.285
8874,0.24
8875,0.175
8876,0.085
8877,-0.025
8878,-0.135
8879,-0.22
8880,-0.225
8881,-0.205
8882,-0.18
8883,-0.15
8884,-0.135
8885,-0.11
8886,-0.095
8887,-0.085
8888,-0.075
8889,-0.095
8890,-0.105
8891,-0.125
8892,-0.12
8893,-0.12
8894,-0.11
8895,-0.095
8896,-0.08
8897,-0.075
8898,-0.085
8899,-0.1
8900,-0.12
8901,-0.125
8902,-0.11
8903,-0.12
8904,-0.115
8905,-0.1
8906,-0.09
8907,-0.085
8908,-0.1
8909,-0.1
8910,-0.09
8911,-0.095
8912,-0.085
8913,-0.09
8914,-0.09
8915,-0.085
8916,-0.065
8917,-0.075
8918,-0.08
8919,-0.075
8920,-0.08
8921,-0.1
8922,-0.09
8923,-0.07
8924,-0.055
8925,-0.065
8926,-0.065
8927,-0.06
8928,-0.035
8929,-0.025
8930,-0.015
8931,0
8932,0.015
8933,0.04
8934,0.04
8935,0.075
8936,0.085
8937,0.085
8938,0.09
8939,0.095
8940,0.07
8941,0.08
8942,0.1
8943,0.1
8944,0.12
8945,0.135
8946,0.145
8947,0.125
8948,0.135
8949,0.13
8950,0.115
8951,0.135
8952,0.145
8953,0.18
8954,0.19
8955,0.175
8956,0.185
8957,0.19
8958,0.18
8959,0.185
8960,0.18
8961,0.185
8962,0.195
8963,0.215
8964,0.21
8965,0.22
8966,0.25
8967,0.255
8968,0.25
8969,0.26
8970,0.245
8971,0.26
8972,0.26
8973,0.285
8974,0.275
8975,0.305
8976,0.305
8977,0.295
8978,0.29
8979,0.27
8980,0.275
8981,0.28
8982,0.285
8983,0.295
8984,0.32
8985,0.29
8986,0.32
8987,0.305
8988,0.3
8989,0.28
8990,0.26
8991,0.27
8992,0.26
8993,0.27
8994,0.27
8995,0.265
8996,0.265
8997,0.24
8998,0.215
8999,0.225
9000,0.21
9001,0.18
9002,0.175
9003,0.17
9004,0.17
9005,0.185
9006,0.16
9007,0.145
9008,0.125
9009,0.115
9010,0.1
9011,0.11
9012,0.105
9013,0.1
9014,0.13
9015,0.11
9016,0.105
9017,0.085
9018,0.07
9019,0.065
9020,0.065
9021,0.06
9022,0.075
9023,0.075
9024,0.07
9025,0.065
9026,0.065
9027,0.06
9028,0.045
9029,0.035
9030,0.035
9031,0.02
9032,0.035
9033,0.05
9034,0.05
9035,0.07
9036,0.07
9037,0.05
9038,0.05
9039,0.04
9040,0.03
9041,0.035
9042,0.05
9043,0.05
9044,0.07
9045,0.08
9046,0.055
9047,0.045
9048,0.04
9049,0.03
9050,0.04
9051,0.02
9052,0.04
9053,0.05
9054,0.05
9055,0.06
9056,0.045
9057,0.035
9058,0.035
9059,0.025
9060,0.025
9061,0.03
9062,0.04
9063,0.05
9064,0.055
9065,0.065
9066,0.05
9067,0.045
9068,0.03
9069,0.02
9070,0.015
9071,0.01
9072,0.015
9073,0.03
9074,0.04
9075,0.05
9076,0.04
9077,0.025
9078,0.02
9079,0.005
9080,0.01
9081,0.01
9082,0.03
9083,0.035
9084,0.045
9085,0.035
9086,0.035
9087,0.015
9088,0.01
9089,0
9090,-0.01
9091,-0.005
9092,0.015
9093,0.015
9094,0.01
9095,0.025
9096,0.015
9097,0.005
9098,-0.015
9099,0.01
9100,0.005
9101,-0.005
9102,0.005
9103,0.01
9104,0.02
9105,0
9106,0.01
9107,-0.015
9108,-0.04
9109,-0.045
9110,-0.05
9111,-0.03
9112,-0.015
9113,-0.005
9114,0.01
9115,-0.03
9116,0
9117,-0.01
9118,-0.01
9119,-0.03
9120,-0.025
9121,-0.04
9122,-0.035
9123,-0.01
9124,-0.005
9125,-0.02
9126,-0.03
9127,-0.04
9128,-0.03
9129,-0.045
9130,-0.06
9131,-0.02
9132,0
9133,-0.025
9134,-0.02
9135,0.015
9136,-0.035
9137,-0.04
9138,-0.06
9139,-0.05
9140,-0.035
9141,-0.05
9142,-0.035
9143,-0.05
9144,-0.04
9145,-0.03
9146,-0.03
9147,-0.05
9148,-0.045
9149,-0.06
9150,-0.08
9151,-0.045
9152,-0.04
9153,-0.045
9154,-0.04
9155,-0.03
9156,-0.065
9157,-0.065
9158,-0.055
9159,-0.07
9160,-0.075
9161,-0.07
9162,-0.055
9163,-0.055
9164,-0.06
9165,-0.05
9166,-0.065
9167,-0.075
9168,-0.075
9169,-0.085
9170,-0.095
9171,-0.08
9172,-0.07
9173,-0.07
9174,-0.065
9175,-0.075
9176,-0.075
9177,-0.08
9178,-0.075
9179,-0.1
9180,-0.085
9181,-0.08
9182,-0.075
9183,-0.055
9184,-0.06
9185,-0.08
9186,-0.09
9187,-0.105
9188,-0.11
9189,-0.11
9190,-0.1
9191,-0.075
9192,-0.065
9193,-0.055
9194,-0.05
9195,-0.055
9196,-0.075
9197,-0.065
9198,-0.06
9199,-0.065
9200,-0.055
9201,-0.04
9202,-0.045
9203,-0.04
9204,-0.045
9205,-0.05
9206,-0.07
9207,-0.08
9208,-0.08
9209,-0.065
9210,-0.025
9211,-0.03
9212,-0.03
9213,-0.03
9214,0
9215,-0.01
9216,-0.02
9217,-0.035
9218,-0.04
9219,-0.045
9220,-0.04
9221,-0.025
9222,-0.03
9223,-0.03
9224,-0.025
9225,-0.005
9226,-0.035
9227,-0.045
9228,-0.065
9229,-0.1
9230,-0.085
9231,-0.08
9232,-0.08
9233,-0.08
9234,-0.08
9235,-0.09
9236,-0.1
9237,-0.115
9238,-0.12
9239,-0.135
9240,-0.13
9241,-0.105
9242,-0.115
9243,-0.1
9244,-0.105
9245,-0.095
9246,-0.1
9247,-0.12
9248,-0.13
9249,-0.135
9250,-0.12
9251,-0.115
9252,-0.105
9253,-0.105
9254,-0.105
9255,-0.12
9256,-0.14
9257,-0.135
9258,-0.13
9259,-0.145
9260,-0.13
9261,-0.11
9262,-0.11
9263,-0.13
9264,-0.115
9265,-0.11
9266,-0.125
9267,-0.14
9268,-0.14
9269,-0.16
9270,-0.13
9271,-0.125
9272,-0.13
9273,-0.15
9274,-0.12
9275,-0.145
9276,-0.16
9277,-0.175
9278,-0.16
9279,-0.195
9280,-0.185
9281,-0.14
9282,-0.09
9283,-0.045
9284,0.01
9285,0.05
9286,0.07
9287,0.12
9288,0.19
9289,0.28
9290,0.39
9291,0.505
9292,0.52
9293,0.51
9294,0.47
9295,0.385
9296,0.33
9297,0.25
9298,0.155
9299,0.06
9300,-0.06
9301,-0.135
9302,-0.205
9303,-0.22
9304,-0.205
9305,-0.21
9306,-0.195
9307,-0.165
9308,-0.145
9309,-0.13
9310,-0.13
9311,-0.11
9312,-0.09
9313,-0.095
9314,-0.105
9315,-0.115
9316,-0.115
9317,-0.115
9318,-0.115
9319,-0.11
9320,-0.11
9321,-0.08
9322,-0.12
9323,-0.1
9324,-0.08
9325,-0.11
9326,-0.145
9327,-0.125
9328,-0.13
9329,-0.115
9330,-0.11
9331,-0.08
9332,-0.065
9333,-0.07
9334,-0.08
9335,-0.095
9336,-0.1
9337,-0.095
9338,-0.115
9339,-0.11
9340,-0.085
9341,-0.09
9342,-0.065
9343,-0.04
9344,-0.065
9345,-0.045
9346,-0.08
9347,-0.065
9348,-0.1
9349,-0.105
9350,-0.095
9351,-0.08
9352,-0.07
9353,-0.06
9354,-0.08
9355,-0.08
9356,-0.075
9357,-0.055
9358,-0.095
9359,-0.075
9360,-0.055
9361,-0.035
9362,-0.03
9363,-0.03
9364,-0.035
9365,-0.045
9366,-0.04
9367,-0.045
9368,-0.045
9369,-0.045
9370,-0.035
9371,-0.015
9372,0
9373,0.005
9374,0
9375,-0.015
9376,-0.02
9377,-0.025
9378,-0.015
9379,0
9380,-0.01
9381,0.02
9382,0.03
9383,0.05
9384,0.055
9385,0.045
9386,0.04
9387,0.03
9388,0.03
9389,0.035
9390,0.055
9391,0.065
9392,0.085
9393,0.13
9394,0.1
9395,0.075
9396,0.09
9397,0.09
9398,0.095
9399,0.095
9400,0.11
9401,0.12
9402,0.13
9403,0.15
9404,0.135
9405,0.1
9406,0.1
9407,0.115
9408,0.095
9409,0.115
9410,0.125
9411,0.11
9412,0.125
9413,0.115
9414,0.105
9415,0.09
9416,0.085
9417,0.07
9418,0.06
9419,0.06
9420,0.05
9421,0.095
9422,0.045
9423,0.04
9424,0.03
9425,-0.005
9426,-0.015
9427,-0.01
9428,-0.035
9429,-0.04
9430,-0.03
9431,-0.04
9432,-0.05
9433,-0.04
9434,-0.06
9435,-0.1
9436,-0.105
9437,-0.105
9438,-0.115
9439,-0.095
9440,-0.09
9441,-0.065
9442,-0.085
9443,-0.09
9444,-0.115
9445,-0.135
9446,-0.135
9447,-0.115
9448,-0.125
9449,-0.125
9450,-0.12
9451,-0.11
9452,-0.095
9453,-0.1
9454,-0.115
9455,-0.125
9456,-0.14
9457,-0.145
9458,-0.14
9459,-0.12
9460,-0.115
9461,-0.105
9462,-0.105
9463,-0.1
9464,-0.115
9465,-0.12
9466,-0.135
9467,-0.14
9468,-0.14
9469,-0.125
9470,-0.105
9471,-0.11
9472,-0.1
9473,-0.105
9474,-0.1
9475,-0.105
9476,-0.11
9477,-0.125
9478,-0.14
9479,-0.125
9480,-0.115
9481,-0.135
9482,-0.105
9483,-0.11
9484,-0.12
9485,-0.125
9486,-0.125
9487,-0.125
9488,-0.12
9489,-0.125
9490,-0.11
9491,-0.095
9492,-0.09
9493,-0.095
9494,-0.105
9495,-0.11
9496,-0.1
9497,-0.12
9498,-0.13
9499,-0.125
9500,-0.105
9501,-0.105
9502,-0.095
9503,-0.105
9504,-0.11
9505,-0.1
9506,-0.13
9507,-0.135
9508,-0.125
9509,-0.11
9510,-0.11
9511,-0.095
9512,-0.09
9513,-0.08
9514,-0.085
9515,-0.095
9516,-0.12
9517,-0.12
9518,-0.13
9519,-0.115
9520,-0.12
9521,-0.1
9522,-0.09
9523,-0.095
9524,-0.11
9525,-0.12
9526,-0.12
9527,-0.12
9528,-0.12
9529,-0.11
9530,-0.11
9531,-0.1
9532,-0.1
9533,-0.11
9534,-0.12
9535,-0.125
9536,-0.12
9537,-0.13
9538,-0.135
9539,-0.125
9540,-0.115
9541,-0.105
9542,-0.095
9543,-0.125
9544,-0.13
9545,-0.135
9546,-0.135
9547,-0.145
9548,-0.125
9549,-0.115
9550,-0.13
9551,-0.115
9552,-0.115
9553,-0.11
9554,-0.125
9555,-0.125
9556,-0.135
9557,-0.13
9558,-0.125
9559,-0.125
9560,-0.13
9561,-0.125
9562,-0.12
9563,-0.14
9564,-0.14
9565,-0.14
9566,-0.145
9567,-0.16
9568,-0.14
9569,-0.13
9570,-0.12
9571,-0.115
9572,-0.11
9573,-0.13
9574,-0.14
9575,-0.14
9576,-0.15
9577,-0.155
9578,-0.135
9579,-0.125
9580,-0.11
9581,-0.1
9582,-0.1
9583,-0.13
9584,-0.125
9585,-0.14
9586,-0.15
9587,-0.15
9588,-0.13
9589,-0.12
9590,-0.13
9591,-0.105
9592,-0.125
9593,-0.14
9594,-0.145
9595,-0.135
9596,-0.14
9597,-0.16
9598,-0.125
9599,-0.13
9600,-0.14
9601,-0.135
9602,-0.14
9603,-0.15
9604,-0.135
9605,-0.145
9606,-0.15
9607,-0.15
9608,-0.13
9609,-0.12
9610,-0.11
9611,-0.1
9612,-0.11
9613,-0.105
9614,-0.11
9615,-0.105
9616,-0.115
9617,-0.11
9618,-0.12
9619,-0.1
9620,-0.11
9621,-0.085
9622,-0.105
9623,-0.1
9624,-0.1
9625,-0.095
9626,-0.085
9627,-0.085
9628,-0.08
9629,-0.06
9630,-0.06
9631,-0.045
9632,-0.06
9633,-0.07
9634,-0.06
9635,-0.07
9636,-0.07
9637,-0.065
9638,-0.075
9639,-0.085
9640,-0.07
9641,-0.09
9642,-0.1
9643,-0.1
9644,-0.115
9645,-0.125
9646,-0.14
9647,-0.13
9648,-0.125
9649,-0.125
9650,-0.135
9651,-0.125
9652,-0.14
9653,-0.13
9654,-0.13
9655,-0.145
9656,-0.15
9657,-0.135
9658,-0.14
9659,-0.14
9660,-0.115
9661,-0.13
9662,-0.145
9663,-0.15
9664,-0.145
9665,-0.16
9666,-0.165
9667,-0.145
9668,-0.135
9669,-0.13
9670,-0.13
9671,-0.14
9672,-0.14
9673,-0.15
9674,-0.165
9675,-0.16
9676,-0.185
9677,-0.15
9678,-0.135
9679,-0.13
9680,-0.145
9681,-0.135
9682,-0.135
9683,-0.16
9684,-0.16
9685,-0.17
9686,-0.185
9687,-0.17
9688,-0.175
9689,-0.165
9690,-0.17
9691,-0.165
9692,-0.18
9693,-0.195
9694,-0.21
9695,-0.19
9696,-0.165
9697,-0.11
9698,-0.05
9699,0
9700,0.055
9701,0.125
9702,0.185
9703,0.28
9704,0.375
9705,0.495
9706,0.585
9707,0.58
9708,0.555
9709,0.49
9710,0.43
9711,0.325
9712,0.235
9713,0.105
9714,-0.01
9715,-0.12
9716,-0.24
9717,-0.275
9718,-0.26
9719,-0.22
9720,-0.195
9721,-0.185
9722,-0.15
9723,-0.135
9724,-0.16
9725,-0.145
9726,-0.14
9727,-0.125
9728,-0.115
9729,-0.115
9730,-0.11
9731,-0.11
9732,-0.135
9733,-0.13
9734,-0.14
9735,-0.145
9736,-0.15
9737,-0.12
9738,-0.12
9739,-0.115
9740,-0.105
9741,-0.09
9742,-0.115
9743,-0.125
9744,-0.125
9745,-0.13
9746,-0.125
9747,-0.12
9748,-0.095
9749,-0.1
9750,-0.1
9751,-0.1
9752,-0.11
9753,-0.12
9754,-0.12
9755,-0.125
9756,-0.1
9757,-0.11
9758,-0.09
9759,-0.08
9760,-0.08
9761,-0.075
9762,-0.08
9763,-0.085
9764,-0.1
9765,-0.095
9766,-0.1
9767,-0.075
9768,-0.075
9769,-0.07
9770,-0.065
9771,-0.065
9772,-0.08
9773,-0.09
9774,-0.095
9775,-0.095
9776,-0.075
9777,-0.07
9778,-0.06
9779,-0.04
9780,-0.035
9781,-0.045
9782,-0.065
9783,-0.065
9784,-0.055
9785,-0.05
9786,-0.045
9787,-0.04
9788,-0.025
9789,0.005
9790,0.005
9791,0.015
9792,0.005
9793,-0.01
9794,-0.01
9795,-0.02
9796,-0.005
9797,0.005
9798,0.03
9799,0.025
9800,0.04
9801,0.065
9802,0.06
9803,0.055
9804,0.055
9805,0.045
9806,0.06
9807,0.07
9808,0.075
9809,0.095
9810,0.12
9811,0.115
9812,0.125
9813,0.12
9814,0.12
9815,0.115
9816,0.11
9817,0.125
9818,0.15
9819,0.14
9820,0.145
9821,0.145
9822,0.13
9823,0.11
9824,0.095
9825,0.095
9826,0.095
9827,0.12
9828,0.12
9829,0.125
9830,0.125
9831,0.105
9832,0.095
9833,0.07
9834,0.06
9835,0.045
9836,0.04
9837,0.04
9838,0.04
9839,0.015
9840,0.02
9841,0.015
9842,-0.025
9843,-0.055
9844,-0.045
9845,-0.05
9846,-0.065
9847,-0.065
9848,-0.045
9849,-0.055
9850,-0.055
9851,-0.07
9852,-0.085
9853,-0.105
9854,-0.11
9855,-0.11
9856,-0.115
9857,-0.11
9858,-0.105
9859,-0.11
9860,-0.105
9861,-0.1
9862,-0.095
9863,-0.13
9864,-0.135
9865,-0.14
9866,-0.115
9867,-0.125
9868,-0.125
9869,-0.095
9870,-0.1
9871,-0.125
9872,-0.14
9873,-0.135
9874,-0.14
9875,-0.145
9876,-0.125
9877,-0.115
9878,-0.11
9879,-0.12
9880,-0.11
9881,-0.125
9882,-0.125
9883,-0.125
9884,-0.125
9885,-0.135
9886,-0.115
9887,-0.12
9888,-0.11
9889,-0.1
9890,-0.085
9891,-0.105
9892,-0.11
9893,-0.125
9894,-0.125
9895,-0.125
9896,-0.12
9897,-0.095
9898,-0.095
9899,-0.09
9900,-0.1
9901,-0.105
9902,-0.115
9903,-0.115
9904,-0.125
9905,-0.13
9906,-0.105
9907,-0.1
9908,-0.08
9909,-0.09
9910,-0.075
9911,-0.1
9912,-0.125
9913,-0.12
9914,-0.125
9915,-0.13
9916,-0.09
9917,-0.095
9918,-0.08
9919,-0.07
9920,-0.08
9921,-0.09
9922,-0.11
9923,-0.115
9924,-0.12
9925,-0.11
9926,-0.1
9927,-0.1
9928,-0.09
9929,-0.08
9930,-0.095
9931,-0.105
9932,-0.105
9933,-0.125
9934,-0.115
9935,-0.11
9936,-0.105
9937,-0.1
9938,-0.09
9939,-0.095
9940,-0.1
9941,-0.115
9942,-0.11
9943,-0.105
9944,-0.08
9945,-0.075
9946,-0.055
9947,-0.045
9948,-0.025
9949,0
9950,0
9951,-0.005
9952,-0.025
9953,-0.01
9954,-0.015
9955,-0.025
9956,0.005
9957,0.015
9958,0.02
9959,0.035
9960,0.035
9961,0.015
9962,0.005
9963,-0.01
9964,-0.01
9965,0.015
9966,0.03
9967,0.035
9968,0.035
9969,0.04
9970,0.02
9971,0.01
9972,0.005
9973,0.005
9974,0.01
9975,0.01
9976,0.025
9977,0.03
9978,0.045
9979,0.055
9980,0.05
9981,0.03
9982,0.01
9983,0.01
9984,0.005
9985,0.005
9986,0.025
9987,0.04
9988,0.05
9989,0.035
9990,0.025
9991,0.02
9992,0.01
9993,0.015
9994,0.015
9995,0.015
9996,0.03
9997,0.02
9998,0.035
9999,0.04
10000,-0.085
10001,-0.08
10002,-0.07
10003,-0.075
10004,-0.095
10005,-0.09
10006,-0.1
10007,-0.1
10008,-0.1
10009,-0.085
10010,-0.06
10011,-0.045
10012,-0.055
10013,-0.06
10014,-0.07
10015,-0.08
10016,-0.085
10017,-0.08
10018,-0.07
10019,-0.04
10020,-0.05
10021,-0.045
10022,-0.04
10023,-0.04
10024,-0.055
10025,-0.06
10026,-0.055
10027,-0.055
10028,-0.055
10029,-0.045
10030,-0.04
10031,-0.045
10032,-0.04
10033,-0.03
10034,-0.035
10035,-0.045
10036,-0.055
10037,-0.055
10038,-0.05
10039,-0.02
10040,-0.015
10041,-0.01
10042,0.005
10043,0
10044,-0.005
10045,-0.025
10046,-0.035
10047,-0.03
10048,-0.03
10049,-0.015
10050,-0.005
10051,0
10052,0.01
10053,0.02
10054,0
10055,-0.005
10056,0.005
10057,0.005
10058,0.01
10059,0.025
10060,0.04
10061,0.055
10062,0.06
10063,0.045
10064,0.04
10065,0.045
10066,0.04
10067,0.04
10068,0.07
10069,0.075
10070,0.09
10071,0.105
10072,0.105
10073,0.115
10074,0.105
10075,0.1
10076,0.1
10077,0.095
10078,0.125
10079,0.155
10080,0.16
10081,0.16
10082,0.175
10083,0.175
10084,0.155
10085,0.16
10086,0.15
10087,0.15
10088,0.16
10089,0.18
10090,0.19
10091,0.19
10092,0.2
10093,0.19
10094,0.18
10095,0.175
10096,0.165
10097,0.16
10098,0.165
10099,0.155
10100,0.165
10101,0.165
10102,0.17
10103,0.145
10104,0.135
10105,0.11
10106,0.09
10107,0.07
10108,0.075
10109,0.085
10110,0.085
10111,0.07
10112,0.07
10113,0.05
10114,0.04
10115,0.025
10116,0.005
10117,-0.005
10118,0
10119,0
10120,0.005
10121,0.01
10122,0
10123,0.01
10124,0.015
10125,0.03
10126,0.035
10127,0.045
10128,0.065
10129,0.085
10130,0.09
10131,0.12
10132,0.115
10133,0.09
10134,0.085
10135,0.07
10136,0.08
10137,0.08
10138,0.09
10139,0.095
10140,0.11
10141,0.115
10142,0.13
10143,0.115
10144,0.1
10145,0.095
10146,0.095
10147,0.095
10148,0.1
10149,0.11
10150,0.12
10151,0.125
10152,0.14
10153,0.135
10154,0.115
10155,0.115
10156,0.115
10157,0.115
10158,0.125
10159,0.13
10160,0.125
10161,0.14
10162,0.14
10163,0.14
10164,0.13
10165,0.105
10166,0.1
10167,0.1
10168,0.13
10169,0.14
10170,0.135
10171,0.15
10172,0.145
10173,0.13
10174,0.125
10175,0.125
10176,0.115
10177,0.12
10178,0.125
10179,0.14
10180,0.14
10181,0.15
10182,0.145
10183,0.14
10184,0.135
10185,0.14
10186,0.125
10187,0.125
10188,0.135
10189,0.145
10190,0.145
10191,0.14
10192,0.135
10193,0.12
10194,0.12
10195,0.11
10196,0.115
10197,0.12
10198,0.135
10199,0.135
10200,0.13
10201,0.135
10202,0.13
10203,0.11
10204,0.11
10205,0.11
10206,0.105
10207,0.115
10208,0.125
10209,0.13
10210,0.115
10211,0.12
10212,0.115
10213,0.105
10214,0.1
10215,0.105
10216,0.09
10217,0.1
10218,0.105
10219,0.11
10220,0.12
10221,0.135
10222,0.12
10223,0.11
10224,0.095
10225,0.1
10226,0.095
10227,0.1
10228,0.11
10229,0.11
10230,0.115
10231,0.115
10232,0.095
10233,0.08
10234,0.075
10235,0.07
10236,0.07
10237,0.075
10238,0.09
10239,0.085
10240,0.1
10241,0.125
10242,0.11
10243,0.105
10244,0.075
10245,0.08
10246,0.065
10247,0.075
10248,0.08
10249,0.09
10250,0.1
10251,0.115
10252,0.105
10253,0.09
10254,0.085
10255,0.09
10256,0.085
10257,0.095
10258,0.11
10259,0.135
10260,0.13
10261,0.135
10262,0.125
10263,0.12
10264,0.11
10265,0.105
10266,0.095
10267,0.11
10268,0.14
10269,0.135
10270,0.14
10271,0.14
10272,0.13
10273,0.125
10274,0.12
10275,0.105
10276,0.1
10277,0.12
10278,0.15
10279,0.16
10280,0.16
10281,0.17
10282,0.16
10283,0.12
10284,0.115
10285,0.115
10286,0.095
10287,0.095
10288,0.1
10289,0.095
10290,0.09
10291,0.09
10292,0.085
10293,0.055
10294,0.065
10295,0.06
10296,0.065
10297,0.075
10298,0.08
10299,0.08
10300,0.095
10301,0.075
10302,0.055
10303,0.05
10304,0.045
10305,0.035
10306,0.045
10307,0.045
10308,0.055
10309,0.06
10310,0.06
10311,0.06
10312,0.06
10313,0.05
10314,0.035
10315,0.02
10316,0.025
10317,0.035
10318,0.045
10319,0.055
10320,0.06
10321,0.055
10322,0.035
10323,0.025
10324,0.03
10325,0.02
10326,0.03
10327,0.05
10328,0.03
10329,0.04
10330,0.05
10331,0.04
10332,0.025
10333,0
10334,-0.01
10335,-0.025
10336,-0.03
10337,-0.025
10338,-0.015
10339,-0.005
10340,0.03
10341,0.065
10342,0.11
10343,0.16
10344,0.2
10345,0.255
10346,0.335
10347,0.425
10348,0.53
10349,0.645
10350,0.72
10351,0.735
10352,0.685
10353,0.63
10354,0.57
10355,0.485
10356,0.41
10357,0.335
10358,0.23
10359,0.1
10360,0.01
10361,-0.06
10362,-0.1
10363,-0.1
10364,-0.09
10365,-0.085
10366,-0.06
10367,-0.02
10368,0.01
10369,0.035
10370,0.04
10371,0.035
10372,0.015
10373,-0.005
10374,-0.02
10375,-0.025
10376,-0.01
10377,0
10378,0.005
10379,0.025
10380,0.025
10381,0.02
10382,0
10383,0.005
10384,-0.015
10385,-0.02
10386,-0.01
10387,-0.01
10388,0
10389,0.01
10390,0
10391,0.005
10392,0.005
10393,-0.005
10394,0
10395,-0.01
10396,0
10397,0.015
10398,0.02
10399,0.025
10400,0.04
10401,0.025
10402,0.01
10403,0
10404,-0.005
10405,-0.005
10406,0.005
10407,0.025
10408,0.025
10409,0.03
10410,0.025
10411,0.01
10412,0.02
10413,0.005
10414,0.01
10415,0.005
10416,0.015
10417,0.02
10418,0.035
10419,0.04
10420,0.05
10421,0.05
10422,0.045
10423,0.04
10424,0.025
10425,0.03
10426,0.03
10427,0.04
10428,0.045
10429,0.055
10430,0.06
10431,0.065
10432,0.065
10433,0.07
10434,0.07
10435,0.065
10436,0.08
10437,0.095
10438,0.105
10439,0.105
10440,0.12
10441,0.115
10442,0.115
10443,0.11
10444,0.1
10445,0.1
10446,0.115
10447,0.13
10448,0.15
10449,0.155
10450,0.16
10451,0.15
10452,0.16
10453,0.165
10454,0.155
10455,0.16
10456,0.175
10457,0.2
10458,0.205
10459,0.21
10460,0.205
10461,0.195
10462,0.185
10463,0.18
10464,0.18
10465,0.18
10466,0.18
10467,0.2
10468,0.205
10469,0.205
10470,0.195
10471,0.17
10472,0.15
10473,0.135
10474,0.13
10475,0.125
10476,0.13
10477,0.115
10478,0.13
10479,0.13
10480,0.115
10481,0.095
10482,0.08
10483,0.07
10484,0.055
10485,0.03
10486,0.015
10487,0.025
10488,0.025
10489,0.02
10490,0.01
10491,-0.005
10492,-0.02
10493,-0.025
10494,-0.035
10495,-0.03
10496,-0.01
10497,0
10498,-0.01
10499,-0.005
10500,-0.01
10501,-0.03
10502,-0.04
10503,-0.055
10504,-0.065
10505,-0.055
10506,-0.04
10507,-0.045
10508,-0.025
10509,-0.035
10510,-0.03
10511,-0.05
10512,-0.055
10513,-0.06
10514,-0.06
10515,-0.045
10516,-0.045
10517,-0.035
10518,-0.02
10519,-0.03
10520,-0.03
10521,-0.05
10522,-0.055
10523,-0.055
10524,-0.06
10525,-0.055
10526,-0.05
10527,-0.04
10528,-0.055
10529,-0.03
10530,-0.055
10531,-0.05
10532,-0.05
10533,-0.06
10534,-0.06
10535,-0.045
10536,-0.04
10537,-0.04
10538,-0.04
10539,-0.04
10540,-0.05
10541,-0.055
10542,-0.055
10543,-0.06
10544,-0.055
10545,-0.03
10546,-0.03
10547,-0.025
10548,-0.02
10549,-0.015
10550,-0.025
10551,-0.035
10552,-0.045
10553,-0.05
10554,-0.055
10555,-0.045
10556,-0.04
10557,-0.02
10558,-0.015
10559,-0.01
10560,-0.015
10561,-0.02
10562,-0.03
10563,-0.035
10564,-0.04
10565,-0.03
10566,-0.03
10567,-0.025
10568,-0.015
10569,-0.015
10570,-0.025
10571,-0.02
10572,-0.035
10573,-0.04
10574,-0.045
10575,-0.045
10576,-0.03
10577,-0.025
10578,-0.005
10579,-0.01
10580,-0.03
10581,-0.03
10582,-0.035
10583,-0.05
10584,-0.06
10585,-0.04
10586,-0.04
10587,-0.03
10588,-0.02
10589,-0.025
10590,-0.04
10591,-0.045
10592,-0.02
10593,-0.05
10594,-0.055
10595,-0.04
10596,-0.03
10597,-0.035
10598,-0.015
10599,-0.02
10600,-0.04
10601,-0.05
10602,-0.055
10603,-0.06
10604,-0.06
10605,-0.055
10606,-0.04
10607,-0.04
10608,-0.035
10609,-0.02
10610,-0.035
10611,-0.045
10612,-0.05
10613,-0.07
10614,-0.07
10615,-0.05
10616,-0.045
10617,-0.035
10618,-0.035
10619,-0.035
10620,-0.045
10621,-0.055
10622,-0.05
10623,-0.05
10624,-0.04
10625,-0.035
10626,-0.025
10627,-0.005
10628,-0.01
10629,-0.025
10630,-0.04
10631,-0.03
10632,-0.035
10633,-0.04
10634,-0.04
10635,-0.025
10636,-0.015
10637,-0.01
10638,0.015
10639,-0.005
10640,-0.005
10641,-0.015
10642,-0.02
10643,-0.025
10644,-0.025
10645,-0.01
10646,0.005
10647,0.015
10648,0.02
10649,0.015
10650,0.005
10651,0.005
10652,0
10653,0
10654,0
10655,0
10656,0.005
10657,0.02
10658,0.03
10659,0.02
10660,-0.01
10661,-0.025
10662,-0.035
10663,-0.055
10664,-0.05
10665,-0.045
10666,-0.04
10667,-0.045
10668,-0.025
10669,-0.035
10670,-0.06
10671,-0.06
10672,-0.07
10673,-0.08
10674,-0.065
10675,-0.055
10676,-0.05
10677,-0.05
10678,-0.035
10679,-0.055
10680,-0.055
10681,-0.06
10682,-0.065
10683,-0.065
10684,-0.06
10685,-0.065
10686,-0.065
10687,-0.065
10688,-0.065
10689,-0.065
10690,-0.08
10691,-0.085
10692,-0.08
10693,-0.1
10694,-0.09
10695,-0.08
10696,-0.06
10697,-0.045
10698,-0.045
10699,-0.055
10700,-0.06
10701,-0.085
10702,-0.085
10703,-0.1
10704,-0.1
10705,-0.08
10706,-0.075
10707,-0.07
10708,-0.075
10709,-0.095
10710,-0.105
10711,-0.115
10712,-0.14
10713,-0.155
10714,-0.135
10715,-0.105
10716,-0.045
10717,0.02
10718,0.075
10719,0.125
10720,0.17
10721,0.225
10722,0.275
10723,0.39
10724,0.515
10725,0.64
10726,0.69
10727,0.66
10728,0.615
10729,0.555
10730,0.485
10731,0.39
10732,0.305
10733,0.195
10734,0.085
10735,-0.03
10736,-0.115
10737,-0.155
10738,-0.145
10739,-0.125
10740,-0.115
10741,-0.11
10742,-0.085
10743,-0.05
10744,-0.055
10745,-0.03
10746,-0.035
10747,-0.045
10748,-0.04
10749,-0.04
10750,-0.065
10751,-0.07
10752,-0.08
10753,-0.075
10754,-0.07
10755,-0.06
10756,-0.05
10757,-0.03
10758,-0.045
10759,-0.045
10760,-0.055
10761,-0.06
10762,-0.055
10763,-0.06
10764,-0.04
10765,-0.035
10766,-0.025
10767,-0.01
10768,-0.025
10769,-0.045
10770,-0.05
10771,-0.055
10772,-0.05
10773,-0.055
10774,-0.03
10775,-0.025
10776,-0.02
10777,-0.01
10778,-0.01
10779,-0.02
10780,-0.03
10781,-0.025
10782,-0.02
10783,-0.015
10784,0.005
10785,0.02
10786,0.025
10787,0.025
10788,0.015
10789,0.005
10790,-0.01
10791,-0.01
10792,-0.01
10793,0.01
10794,0.015
10795,0.025
10796,0.045
10797,0.06
10798,0.065
10799,0.05
10800,0.04
10801,0.045
10802,0.04
10803,0.045
10804,0.045
10805,0.06
10806,0.065
10807,0.07
10808,0.065
10809,0.065
10810,0.065
10811,0.065
10812,0.075
10813,0.08
10814,0.1
10815,0.115
10816,0.125
10817,0.13
10818,0.14
10819,0.14
10820,0.15
10821,0.135
10822,0.13
10823,0.14
10824,0.17
10825,0.175
10826,0.19
10827,0.2
10828,0.205
10829,0.19
10830,0.2
10831,0.2
10832,0.195
10833,0.21
10834,0.225
10835,0.235
10836,0.23
10837,0.24
10838,0.225
10839,0.225
10840,0.205
10841,0.2
10842,0.19
10843,0.19
10844,0.205
10845,0.205
10846,0.22
10847,0.23
10848,0.205
10849,0.195
10850,0.175
10851,0.165
10852,0.155
10853,0.15
10854,0.14
10855,0.135
10856,0.13
10857,0.11
10858,0.105
10859,0.085
10860,0.075
10861,0.065
10862,0.06
10863,0.065
10864,0.06
10865,0.06
10866,0.05
10867,0.045
10868,0.04
10869,0.02
10870,0.01
10871,0
10872,0
10873,0.01
10874,0.015
10875,0.01
10876,0.02
10877,0.01
10878,0
10879,-0.02
10880,-0.02
10881,-0.04
10882,-0.035
10883,-0.025
10884,-0.015
10885,-0.005
10886,0.005
10887,-0.005
10888,-0.02
10889,-0.025
10890,-0.025
10891,-0.025
10892,-0.025
10893,-0.025
10894,-0.01
10895,0.005
10896,0.015
10897,0.01
10898,0.005
10899,-0.02
10900,-0.015
10901,-0.015
10902,-0.02
10903,-0.025
10904,-0.02
10905,-0.02
10906,0
10907,0.015
10908,-0.005
10909,-0.01
10910,-0.02
10911,-0.03
10912,-0.03
10913,-0.015
10914,0
10915,0.01
10916,0.015
10917,0.015
10918,-0.005
10919,-0.01
10920,-0.035
10921,-0.025
10922,-0.025
10923,-0.02
10924,0.005
10925,0.015
