0,0.265
1,0.25
2,0.23
3,0.24
4,0.245
5,0.285
6,0.315
7,0.355
8,0.335
9,0.3
10,0.27
11,0.23
12,0.215
13,0.225
14,0.21
15,0.29
16,0.33
17,0.335
18,0.315
19,0.255
20,0.2
21,0.135
22,0.125
23,0.12
24,0.175
25,0.215
26,0.21
27,0.185
28,0.175
29,0.17
30,0.065
31,0.035
32,0.025
33,0.005
34,0.04
35,0.085
36,0.105
37,0.13
38,0.11
39,0.065
40,0.035
41,0
42,-0.045
43,-0.01
44,0.03
45,0.05
46,0.025
47,0.055
48,0.025
49,0.025
50,-0.025
51,-0.07
52,-0.065
53,-0.03
54,-0.045
55,0.005
56,0.03
57,0.055
58,0.025
59,0
60,-0.015
61,-0.015
62,-0.055
63,-0.04
64,-0.035
65,0.03
66,0.055
67,0.055
68,0.045
69,0.02
70,-0.04
71,-0.08
72,-0.09
73,-0.075
74,-0.03
75,0.04
76,0.06
77,0.08
78,0.075
79,0.005
80,-0.05
81,-0.07
82,-0.055
83,-0.055
84,0
85,0.03
86,0.035
87,0.065
88,0.06
89,0.01
90,-0.035
91,-0.095
92,-0.06
93,-0.03
94,0
95,0.06
96,0.065
97,0.065
98,0.045
99,0.02
100,-0.04
101,-0.05
102,-0.05
103,0.005
104,0.015
105,0.06
106,0.075
107,0.085
108,0.05
109,-0.03
110,-0.045
111,-0.045
112,-0.05
113,-0.05
114,0.01
115,0.045
116,0.07
117,0.085
118,0.045
119,0
120,-0.03
121,-0.045
122,-0.06
123,-0.055
124,-0.025
125,0.015
126,0.04
127,0.065
128,0.04
129,-0.02
130,-0.075
131,-0.085
132,-0.075
133,-0.04
134,0
135,0.025
136,0.025
137,0.035
138,0.04
139,-0.02
140,-0.08
141,-0.065
142,-0.06
143,-0.03
144,-0.005
145,0.045
146,0.095
147,0.06
148,0.045
149,0.015
150,-0.025
151,-0.03
152,0.01
153,-0.04
154,0.02
155,0.04
156,0.065
157,0.035
158,0.045
159,0.045
160,0.035
161,0
162,-0.025
163,0.01
164,0.04
165,0.09
166,0.1
167,0.095
168,0.04
169,0.01
170,0.02
171,0
172,0.025
173,0.075
174,0.085
175,0.095
176,0.115
177,0.085
178,0.045
179,-0.01
180,-0.04
181,-0.08
182,-0.075
183,-0.03
184,-0.01
185,0.01
186,0
187,0.01
188,0
189,-0.015
190,-0.07
191,-0.085
192,-0.045
193,-0.045
194,-0.02
195,-0.01
196,0.04
197,0.04
198,-0.005
199,-0.08
200,-0.1
201,-0.075
202,-0.05
203,-0.045
204,-0.005
205,0.015
206,0.02
207,0.01
208,0.01
209,-0.05
210,-0.115
211,-0.105
212,-0.09
213,-0.05
214,-0.005
215,0.02
216,0
217,0.005
218,-0.03
219,-0.09
220,-0.115
221,-0.095
222,-0.09
223,-0.07
224,-0.04
225,-0.025
226,-0.01
227,-0.04
228,-0.09
229,-0.15
230,-0.095
231,-0.095
232,-0.015
233,0.065
234,0.195
235,0.26
236,0.37
237,0.435
238,0.53
239,0.575
240,0.7
241,0.75
242,0.79
243,0.75
244,0.745
245,0.695
246,0.585
247,0.45
248,0.315
249,0.13
250,-0.04
251,-0.14
252,-0.15
253,-0.13
254,-0.1
255,-0.06
256,-0.03
257,-0.015
258,-0.01
259,-0.04
260,-0.05
261,-0.075
262,-0.04
263,-0.02
264,0.005
265,0.04
266,0.05
267,0.025
268,-0.005
269,-0.065
270,-0.045
271,-0.04
272,-0.05
273,0.015
274,0.09
275,0.06
276,0.035
277,0.03
278,0.01
279,-0.055
280,-0.05
281,-0.045
282,-0.01
283,0.045
284,0.075
285,0.1
286,0.095
287,0.035
288,-0.01
289,0.005
290,-0.015
291,-0.035
292,0.005
293,0.02
294,0.055
295,0.11
296,0.07
297,0.045
298,0
299,-0.035
300,-0.03
301,-0.03
302,0.05
303,0.075
304,0.075
305,0.08
306,0.1
307,0.095
308,0.045
309,0.005
310,-0.01
311,0.015
312,0.055
313,0.1
314,0.12
315,0.135
316,0.065
317,0.095
318,0.085
319,0.055
320,0.04
321,0.08
322,0.09
323,0.145
324,0.145
325,0.19
326,0.175
327,0.15
328,0.09
329,0.1
330,0.075
331,0.095
332,0.14
333,0.185
334,0.205
335,0.245
336,0.225
337,0.205
338,0.185
339,0.14
340,0.165
341,0.18
342,0.19
343,0.26
344,0.27
345,0.31
346,0.295
347,0.27
348,0.215
349,0.21
350,0.175
351,0.195
352,0.215
353,0.255
354,0.27
355,0.315
356,0.335
357,0.28
358,0.225
359,0.2
360,0.195
361,0.19
362,0.225
363,0.255
364,0.28
365,0.26
366,0.2
367,0.165
368,0.13
369,0.085
370,0.08
371,0.09
372,0.1
373,0.115
374,0.135
375,0.16
376,0.12
377,0.065
378,0.015
379,-0.03
380,-0.035
381,-0.01
382,0.02
383,0.08
384,0.125
385,0.085
386,0.04
387,0.03
388,-0.015
389,-0.06
390,-0.035
391,-0.06
392,-0.025
393,0.04
394,0.065
395,0.02
396,0.045
397,0.005
398,-0.05
399,-0.07
400,-0.07
401,-0.04
402,-0.03
403,0.015
404,0.015
405,0.035
406,0.025
407,-0.02
408,-0.045
409,-0.075
410,-0.09
411,-0.04
412,-0.03
413,-0.005
414,0.06
415,0.02
416,0.035
417,0.01
418,-0.035
419,-0.065
420,-0.07
421,-0.045
422,-0.01
423,0.075
424,0.065
425,0.05
426,0.04
427,0.04
428,-0.055
429,-0.08
430,-0.06
431,-0.02
432,-0.04
433,0.02
434,0.065
435,0.03
436,0.035
437,-0.01
438,-0.035
439,-0.02
440,-0.075
441,-0.04
442,0.015
443,0.025
444,0.04
445,0.045
446,0.025
447,0.005
448,-0.035
449,-0.06
450,-0.06
451,-0.035
452,0.02
453,0.035
454,0.055
455,0.09
456,0.045
457,0.025
458,-0.03
459,-0.05
460,-0.05
461,-0.035
462,-0.005
463,0.035
464,0.055
465,0
466,0
467,-0.005
468,-0.03
469,-0.025
470,-0.04
471,-0.015
472,0.005
473,0.045
474,0.025
475,0.03
476,0.01
477,-0.05
478,-0.075
479,-0.095
480,-0.07
481,-0.04
482,-0.015
483,0.015
484,0.06
485,0.04
486,0.01
487,-0.055
488,-0.08
489,-0.06
490,-0.075
491,-0.035
492,-0.005
493,0.005
494,0.045
495,0.05
496,0.035
497,0.005
498,-0.035
499,-0.05
500,-0.065
501,-0.05
502,0.01
503,0.055
504,0.06
505,0.045
506,-0.015
507,-0.055
508,-0.015
509,-0.07
510,-0.04
511,0.02
512,0.075
513,0.085
514,0.075
515,0.085
516,0.085
517,0
518,-0.035
519,0
520,0
521,-0.02
522,0.055
523,0.095
524,0.105
525,0.08
526,0.04
527,0
528,-0.04
529,-0.06
530,-0.05
531,-0.03
532,-0.01
533,0.025
534,0.02
535,0.02
536,-0.025
537,-0.1
538,-0.09
539,-0.085
540,-0.065
541,-0.06
542,-0.025
543,0.01
544,-0.01
545,-0.005
546,-0.03
547,-0.1
548,-0.145
549,-0.105
550,-0.085
551,-0.085
552,-0.025
553,0.02
554,0.015
555,0.005
556,-0.04
557,-0.095
558,-0.055
559,-0.09
560,-0.09
561,-0.09
562,0
563,0.06
564,0.03
565,-0.01
566,-0.035
567,-0.085
568,-0.13
569,-0.13
570,-0.085
571,-0.06
572,-0.02
573,0.01
574,-0.01
575,-0.045
576,-0.11
577,-0.14
578,-0.135
579,-0.12
580,-0.095
581,-0.06
582,0.01
583,0.15
584,0.195
585,0.23
586,0.22
587,0.27
588,0.39
589,0.45
590,0.625
591,0.79
592,0.8
593,0.83
594,0.775
595,0.655
596,0.505
597,0.38
598,0.255
599,0.155
600,0.045
601,-0.02
602,-0.065
603,-0.075
604,-0.06
605,-0.075
606,-0.1
607,-0.1
608,-0.085
609,-0.075
610,-0.005
611,-0.005
612,0.02
613,0.06
614,0.085
615,0.01
616,-0.02
617,-0.045
618,-0.07
619,-0.075
620,-0.06
621,-0.025
622,0.04
623,0.07
624,0.05
625,0.02
626,-0.02
627,-0.05
628,-0.07
629,-0.055
630,-0.025
631,0.025
632,0.035
633,0.06
634,0.05
635,0.02
636,-0.02
637,-0.04
638,-0.055
639,-0.045
640,-0.005
641,0.055
642,0.065
643,0.055
644,0.095
645,0.065
646,0.005
647,-0.05
648,-0.075
649,-0.03
650,-0.005
651,0.085
652,0.085
653,0.095
654,0.095
655,0.08
656,0.04
657,0.015
658,-0.025
659,-0.015
660,0.05
661,0.085
662,0.09
663,0.1
664,0.11
665,0.105
666,0.055
667,0
668,0.005
669,0.035
670,0.075
671,0.095
672,0.155
673,0.135
674,0.145
675,0.14
676,0.08
677,0.085
678,0.06
679,0.055
680,0.125
681,0.17
682,0.195
683,0.275
684,0.24
685,0.17
686,0.135
687,0.15
688,0.14
689,0.155
690,0.2
691,0.255
692,0.29
693,0.29
694,0.265
695,0.265
696,0.195
697,0.165
698,0.18
699,0.235
700,0.24
701,0.285
702,0.28
703,0.3
704,0.325
705,0.265
706,0.225
707,0.18
708,0.195
709,0.2
710,0.23
711,0.26
712,0.28
713,0.285
714,0.22
715,0.145
716,0.13
717,0.135
718,0.12
719,0.125
720,0.16
721,0.155
722,0.175
723,0.18
724,0.105
725,0.075
726,0.045
727,0.045
728,0.02
729,0.03
730,0.05
731,0.095
732,0.085
733,0.03
734,-0.005
735,-0.02
736,-0.06
737,-0.05
738,-0.05
739,-0.045
740,0
741,0.025
742,0.04
743,0.05
744,0.015
745,-0.045
746,-0.035
747,-0.075
748,-0.075
749,-0.065
750,0
751,0.005
752,0.055
753,0.04
754,0.01
755,-0.02
756,-0.045
757,-0.085
758,-0.1
759,-0.03
760,0.005
761,0
762,0.02
763,0.035
764,-0.005
765,-0.04
766,-0.055
767,-0.09
768,-0.075
769,-0.04
770,0.02
771,0.085
772,0.05
773,0.03
774,0.02
775,-0.025
776,-0.08
777,-0.075
778,-0.07
779,-0.055
780,-0.055
781,-0.005
782,0.045
783,0.05
784,0.005
785,-0.05
786,-0.065
787,-0.07
788,-0.045
789,-0.03
790,0.005
791,0.04
792,0.05
793,0.075
794,0.055
795,-0.035
796,-0.07
797,-0.055
798,-0.055
799,-0.015
800,0.015
801,0.02
802,0.04
803,0.04
804,0.06
805,-0.02
806,-0.065
807,-0.055
808,-0.035
809,-0.045
810,-0.03
811,0.03
812,0.05
813,0.045
814,-0.025
815,-0.05
816,-0.065
817,-0.065
818,-0.05
819,-0.045
820,0.02
821,0.05
822,0.065
823,0.025
824,0.01
825,-0.05
826,-0.07
827,-0.09
828,-0.07
829,-0.025
830,0.03
831,0.055
832,0.05
833,0.015
834,0.015
835,-0.045
836,-0.065
837,-0.05
838,-0.1
839,-0.025
840,0
841,-0.01
842,0.01
843,0.03
844,0.005
845,-0.055
846,-0.04
847,-0.05
848,-0.02
849,0.005
850,0.02
851,0.03
852,0.06
853,0.05
854,0.015
855,-0.035
856,-0.025
857,-0.02
858,-0.025
859,-0.02
860,0.04
861,0.065
862,0.04
863,0.04
864,0.045
865,0.01
866,-0.045
867,-0.075
868,-0.01
869,0.03
870,0.07
871,0.085
872,0.125
873,0.075
874,0.06
875,0
876,-0.025
877,0
878,0.01
879,0.04
880,0.065
881,0.1
882,0.085
883,0.035
884,-0.025
885,-0.04
886,-0.05
887,-0.08
888,-0.06
889,-0.005
890,0.015
891,0.005
892,0.04
893,0.035
894,0.005
895,-0.06
896,-0.08
897,-0.09
898,-0.035
899,0
900,0.01
901,-0.005
902,0.005
903,0
904,-0.065
905,-0.1
906,-0.1
907,-0.12
908,-0.065
909,0
910,0.005
911,0.01
912,0.025
913,0.005
914,-0.06
915,-0.115
916,-0.135
917,-0.09
918,-0.04
919,-0.02
920,0.02
921,0.01
922,0.005
923,-0.01
924,-0.065
925,-0.11
926,-0.11
927,-0.105
928,-0.1
929,-0.05
930,0.01
931,0.01
932,-0.015
933,-0.105
934,-0.13
935,-0.1
936,-0.045
937,0.045
938,0.115
939,0.215
940,0.305
941,0.415
942,0.51
943,0.59
944,0.665
945,0.755
946,0.77
947,0.8
948,0.765
949,0.735
950,0.63
951,0.55
952,0.4
953,0.245
954,0.06
955,-0.09
956,-0.16
957,-0.165
958,-0.13
959,-0.07
960,-0.02
961,0.01
962,0.015
963,0.02
964,-0.015
965,-0.01
966,-0.045
967,-0.045
968,-0.035
969,0.02
970,0.075
971,0.065
972,0.06
973,0.035
974,-0.05
975,-0.08
976,-0.06
977,-0.05
978,-0.035
979,0.025
980,0.04
981,0.04
982,0.02
983,0.02
984,-0.05
985,-0.025
986,-0.035
987,-0.015
988,-0.01
989,0.055
990,0.055
991,0.06
992,0.065
993,0.035
994,-0.04
995,-0.01
996,0
997,0.04
998,0.025
999,0.04
1000,0.075
1001,0.095
1002,0.08
1003,0.04
1004,-0.02
1005,-0.03
1006,-0.035
1007,-0.015
1008,0.03
1009,0.095
1010,0.09
1011,0.105
1012,0.11
1013,0.07
1014,0.05
1015,0.06
1016,0
1017,0.005
1018,0.07
1019,0.11
1020,0.11
1021,0.12
1022,0.09
1023,0.07
1024,0.035
1025,0.08
1026,0.065
1027,0.085
1028,0.135
1029,0.19
1030,0.19
1031,0.2
1032,0.135
1033,0.125
1034,0.13
1035,0.14
1036,0.17
1037,0.195
1038,0.165
1039,0.235
1040,0.28
1041,0.285
1042,0.25
1043,0.22
1044,0.21
1045,0.2
1046,0.18
1047,0.205
1048,0.26
1049,0.27
1050,0.32
1051,0.355
1052,0.345
1053,0.29
1054,0.24
1055,0.23
1056,0.205
1057,0.3
1058,0.32
1059,0.33
1060,0.32
1061,0.345
1062,0.325
1063,0.265
1064,0.19
1065,0.19
1066,0.22
1067,0.205
1068,0.255
1069,0.28
1070,0.27
1071,0.265
1072,0.22
1073,0.17
1074,0.125
1075,0.085
1076,0.11
1077,0.11
1078,0.13
1079,0.17
1080,0.165
1081,0.175
1082,0.115
1083,0.035
1084,0.025
1085,-0.025
1086,0.015
1087,0.035
1088,0.09
1089,0.075
1090,0.065
1091,0.06
1092,0.055
1093,0.01
1094,-0.04
1095,-0.04
1096,-0.05
1097,-0.04
1098,0.03
1099,0.075
1100,0.005
1101,-0.01
1102,0.055
1103,0.02
1104,-0.03
1105,-0.045
1106,-0.025
1107,-0.015
1108,0.025
1109,0.065
1110,0.055
1111,0.03
1112,0.045
1113,-0.005
1114,-0.06
1115,-0.06
1116,-0.03
1117,-0.02
1118,0.015
1119,0.03
1120,0.055
1121,0.055
1122,0.02
1123,-0.015
1124,-0.06
1125,-0.045
1126,0.01
1127,0.02
1128,0.01
1129,0.025
1130,0.06
1131,0.055
1132,0
1133,-0.025
1134,-0.05
1135,-0.045
1136,-0.015
1137,0
1138,0.04
1139,0.075
1140,0.07
1141,0.03
1142,0.005
1143,0.01
1144,-0.025
1145,-0.05
1146,-0.015
1147,0.005
1148,0.06
1149,0.095
1150,0.08
1151,0.085
1152,0.005
1153,-0.035
1154,-0.055
1155,-0.05
1156,0.01
1157,0.035
1158,0.085
1159,0.085
1160,0.055
1161,0.035
1162,0.04
1163,-0.02
1164,-0.065
1165,-0.03
1166,-0.02
1167,0.005
1168,0.045
1169,0.085
1170,0.07
1171,0.05
1172,-0.01
1173,-0.055
1174,-0.06
1175,-0.055
1176,-0.02
1177,0
1178,0.04
1179,0.05
1180,0.08
1181,0.025
1182,-0.025
1183,-0.055
1184,-0.065
1185,-0.105
1186,-0.095
1187,0.02
1188,0.08
1189,0.09
1190,0.08
1191,0.05
1192,-0.005
1193,-0.05
1194,-0.04
1195,-0.02
1196,-0.035
1197,0.01
1198,0.045
1199,0.045
1200,0.07
1201,0.03
1202,-0.03
1203,-0.055
1204,-0.045
1205,-0.04
1206,-0.06
1207,-0.02
1208,0.035
1209,0.07
1210,0.07
1211,0.035
1212,-0.025
1213,-0.04
1214,-0.045
1215,-0.055
1216,-0.02
1217,0.015
1218,0.055
1219,0.075
1220,0.055
1221,0.045
1222,0.01
1223,-0.02
1224,-0.03
1225,-0.05
1226,-0.015
1227,0.01
1228,0.06
1229,0.125
1230,0.12
1231,0.045
1232,0
1233,-0.005
1234,0
1235,0.035
1236,0.035
1237,0.065
1238,0.12
1239,0.12
1240,0.11
1241,0.1
1242,0.06
1243,0.045
1244,0.01
1245,0.005
1246,0.035
1247,0.075
1248,0.075
1249,0.055
1250,0.07
1251,0.035
1252,-0.025
1253,-0.065
1254,-0.06
1255,-0.06
1256,-0.035
1257,0.01
1258,0.055
1259,0.075
1260,0.02
1261,-0.01
1262,-0.045
1263,-0.065
1264,-0.075
1265,-0.02
1266,-0.025
1267,0.015
1268,0.025
1269,0.055
1270,0.015
1271,-0.025
1272,-0.065
1273,-0.05
1274,-0.05
1275,-0.035
1276,-0.025
1277,0.01
1278,0.045
1279,0.045
1280,0.01
1281,-0.015
1282,-0.05
1283,-0.06
1284,-0.04
1285,-0.09
1286,-0.045
1287,-0.015
1288,0.02
1289,0.01
1290,0.005
1291,-0.005
1292,-0.075
1293,-0.075
1294,-0.105
1295,-0.07
1296,-0.03
1297,-0.035
1298,-0.005
1299,-0.005
1300,-0.05
1301,-0.05
1302,-0.04
1303,0
1304,0.07
1305,0.145
1306,0.25
1307,0.39
1308,0.465
1309,0.62
1310,0.74
1311,0.845
1312,0.875
1313,0.855
1314,0.81
1315,0.785
1316,0.735
1317,0.64
1318,0.51
1319,0.41
1320,0.205
1321,0.045
1322,-0.115
1323,-0.155
1324,-0.15
1325,-0.095
1326,-0.035
1327,0.03
1328,0.08
1329,0.095
1330,0.05
1331,0.035
1332,-0.02
1333,-0.05
1334,-0.015
1335,-0.02
1336,0.015
1337,0.07
1338,0.08
1339,0.07
1340,0.045
1341,0.01
1342,-0.04
1343,-0.05
1344,-0.025
1345,0.005
1346,0.01
1347,0.035
1348,0.075
1349,0.1
1350,0.085
1351,0.045
1352,-0.025
1353,-0.055
1354,-0.03
1355,0.01
1356,0.08
1357,0.11
1358,0.105
1359,0.125
1360,0.115
1361,0.08
1362,0.01
1363,-0.015
1364,0.01
1365,0.065
1366,0.07
1367,0.075
1368,0.06
1369,0.105
1370,0.115
1371,0.075
1372,0.005
1373,0.015
1374,0.025
1375,0.04
1376,0.095
1377,0.115
1378,0.135
1379,0.085
1380,0.12
1381,0.08
1382,0.07
1383,0.08
1384,0.06
1385,0.06
1386,0.11
1387,0.15
1388,0.175
1389,0.155
1390,0.165
1391,0.12
1392,0.12
1393,0.095
1394,0.095
1395,0.15
1396,0.19
1397,0.21
1398,0.245
1399,0.22
1400,0.185
1401,0.155
1402,0.175
1403,0.155
1404,0.13
1405,0.17
1406,0.27
1407,0.295
1408,0.325
1409,0.32
1410,0.27
1411,0.24
1412,0.205
1413,0.21
1414,0.255
1415,0.27
1416,0.34
1417,0.34
1418,0.35
1419,0.355
1420,0.31
1421,0.25
1422,0.23
1423,0.22
1424,0.275
1425,0.28
1426,0.315
1427,0.365
1428,0.4
1429,0.36
1430,0.325
1431,0.29
1432,0.225
1433,0.195
1434,0.22
1435,0.26
1436,0.28
1437,0.305
1438,0.245
1439,0.24
1440,0.23
1441,0.16
1442,0.14
1443,0.12
1444,0.125
1445,0.13
1446,0.185
1447,0.19
1448,0.155
1449,0.14
1450,0.1
1451,0.08
1452,0.055
1453,0.03
1454,0.045
1455,0.055
1456,0.05
1457,0.125
1458,0.11
1459,0.085
1460,0.075
1461,0.045
1462,0.01
1463,0.005
1464,0
1465,0
1466,0.055
1467,0.105
1468,0.075
1469,0.03
1470,0.025
1471,0.015
1472,-0.05
1473,-0.01
1474,0.02
1475,0.03
1476,0.055
1477,0.07
1478,0.08
1479,0.075
1480,0.02
1481,-0.005
1482,0
1483,0.005
1484,0.01
1485,0.02
1486,0.07
1487,0.1
1488,0.105
1489,0.07
1490,0.015
1491,-0.03
1492,-0.02
1493,0.01
1494,0.01
1495,0.065
1496,0.115
1497,0.095
1498,0.075
1499,0.06
1500,0.035
1501,-0.015
1502,-0.01
1503,-0.01
1504,0.005
1505,0.05
1506,0.105
1507,0.09
1508,0.1
1509,0.05
1510,0.02
1511,0
1512,0.04
1513,0.025
1514,0.04
1515,0.085
1516,0.075
1517,0.1
1518,0.1
1519,0.04
1520,0.02
1521,0.015
1522,0
1523,0.005
1524,0.05
1525,0.12
1526,0.12
1527,0.085
1528,0.065
1529,0.055
1530,0.01
1531,-0.02
1532,-0.02
1533,-0.03
1534,0.025
1535,0.045
1536,0.09
1537,0.105
1538,0.075
1539,0.065
1540,0.005
1541,-0.035
1542,-0.035
1543,-0.005
1544,0.03
1545,0.065
1546,0.095
1547,0.07
1548,0.075
1549,0.07
1550,0.02
1551,-0.04
1552,-0.045
1553,-0.025
1554,-0.005
1555,0.05
1556,0.11
1557,0.105
1558,0.08
1559,0.08
1560,-0.015
1561,-0.04
1562,-0.055
1563,-0.04
1564,0.005
1565,0.055
1566,0.06
1567,0.07
1568,0.075
1569,0.04
1570,-0.025
1571,-0.03
1572,0.01
1573,-0.02
1574,-0.025
1575,0.045
1576,0.055
1577,0.05
1578,0.03
1579,0.02
1580,-0.02
1581,0.02
1582,0.005
1583,-0.01
1584,-0.01
1585,0.065
1586,0.07
1587,0.08
1588,0.075
1589,0.03
1590,-0.005
1591,-0.035
1592,-0.04
1593,-0.02
1594,0.005
1595,0.075
1596,0.095
1597,0.12
1598,0.085
1599,0.025
1600,-0.015
1601,0.015
1602,-0.01
1603,-0.005
1604,0.03
1605,0.09
1606,0.11
1607,0.11
1608,0.09
1609,0.07
1610,0.015
1611,-0.035
1612,-0.005
1613,0.02
1614,0.075
1615,0.14
1616,0.15
1617,0.145
1618,0.105
1619,0.07
1620,0.04
1621,0.025
1622,0.05
1623,0.09
1624,0.095
1625,0.12
1626,0.15
1627,0.125
1628,0.07
1629,0.04
1630,0.015
1631,-0.04
1632,-0.02
1633,-0.01
1634,0.01
1635,0.05
1636,0.07
1637,0.1
1638,0.085
1639,0.02
1640,-0.025
1641,-0.035
1642,-0.055
1643,-0.055
1644,-0.02
1645,0.05
1646,0.075
1647,0.055
1648,0.035
1649,0.01
1650,-0.015
1651,-0.05
1652,-0.06
1653,-0.03
1654,0.005
1655,0.045
1656,0.055
1657,0.01
1658,0.02
1659,-0.01
1660,-0.04
1661,-0.055
1662,-0.05
1663,-0.02
1664,-0.005
1665,0.095
1666,0.095
1667,0.055
1668,0.025
1669,-0.015
1670,-0.025
1671,-0.06
1672,-0.075
1673,-0.07
1674,-0.02
1675,0.04
1676,0.085
1677,0.03
1678,-0.005
1679,-0.06
1680,-0.065
1681,-0.08
1682,-0.055
1683,0.02
1684,0.125
1685,0.245
1686,0.305
1687,0.38
1688,0.43
1689,0.495
1690,0.56
1691,0.68
1692,0.77
1693,0.825
1694,0.895
1695,0.855
1696,0.8
1697,0.665
1698,0.48
1699,0.33
1700,0.215
1701,0.095
1702,-0.01
1703,-0.085
1704,-0.05
1705,-0.04
1706,0.03
1707,-0.025
1708,-0.01
1709,-0.035
1710,0.005
1711,0
1712,0.015
1713,0.04
1714,0.075
1715,0.11
1716,0.105
1717,0.095
1718,0.075
1719,0.03
1720,-0.01
1721,-0.05
1722,0.01
1723,0.035
1724,0.07
1725,0.07
1726,0.13
1727,0.125
1728,0.08
1729,0.04
1730,0.01
1731,0.02
1732,0.035
1733,0.03
1734,0.09
1735,0.13
1736,0.125
1737,0.11
1738,0.105
1739,0.065
1740,0.025
1741,0.02
1742,0.02
1743,0.04
1744,0.1
1745,0.165
1746,0.165
1747,0.105
1748,0.09
1749,0.015
1750,0.07
1751,0.04
1752,0.065
1753,0.085
1754,0.125
1755,0.18
1756,0.15
1757,0.14
1758,0.115
1759,0.075
1760,0.05
1761,0.065
1762,0.07
1763,0.11
1764,0.18
1765,0.205
1766,0.215
1767,0.155
1768,0.125
1769,0.135
1770,0.13
1771,0.11
1772,0.145
1773,0.165
1774,0.25
1775,0.24
1776,0.21
1777,0.21
1778,0.17
1779,0.155
1780,0.14
1781,0.14
1782,0.19
1783,0.2
1784,0.255
1785,0.3
1786,0.335
1787,0.29
1788,0.245
1789,0.22
1790,0.25
1791,0.225
1792,0.225
1793,0.265
1794,0.33
1795,0.385
1796,0.4
1797,0.355
1798,0.29
1799,0.26
1800,0.265
1801,0.285
1802,0.29
1803,0.32
1804,0.37
1805,0.4
1806,0.36
1807,0.35
1808,0.315
1809,0.275
1810,0.25
1811,0.275
1812,0.28
1813,0.315
1814,0.34
1815,0.355
1816,0.34
1817,0.28
1818,0.23
1819,0.21
1820,0.165
1821,0.135
1822,0.16
1823,0.24
1824,0.245
1825,0.25
1826,0.23
1827,0.135
1828,0.115
1829,0.075
1830,0.07
1831,0.08
1832,0.09
1833,0.165
1834,0.135
1835,0.16
1836,0.16
1837,0.135
1838,0.08
1839,0.05
1840,0.02
1841,0.02
1842,0.06
1843,0.1
1844,0.12
1845,0.125
1846,0.09
1847,0.07
1848,0.02
1849,-0.01
1850,-0.02
1851,0.045
1852,0.08
1853,0.075
1854,0.09
1855,0.125
1856,0.09
1857,0.08
1858,0.04
1859,0.025
1860,-0.005
1861,0.025
1862,0.05
1863,0.06
1864,0.1
1865,0.115
1866,0.08
1867,0.05
1868,0.015
1869,0.005
1870,-0.005
1871,0
1872,0.05
1873,0.08
1874,0.075
1875,0.13
1876,0.135
1877,0.09
1878,0.045
1879,0.035
1880,0.015
1881,0.02
1882,0.065
1883,0.125
1884,0.115
1885,0.105
1886,0.105
1887,0.085
1888,0.02
1889,0
1890,0.03
1891,0.015
1892,0.03
1893,0.095
1894,0.125
1895,0.145
1896,0.14
1897,0.075
1898,0.045
1899,0.03
1900,0.025
1901,0.035
1902,0.06
1903,0.115
1904,0.135
1905,0.125
1906,0.11
1907,0.08
1908,0.04
1909,0.03
1910,0.025
1911,0.015
1912,0.06
1913,0.13
1914,0.13
1915,0.13
1916,0.145
1917,0.11
1918,0.025
1919,-0.02
1920,-0.02
1921,0.015
1922,0.06
1923,0.1
1924,0.11
1925,0.14
1926,0.09
1927,0.045
1928,0.045
1929,0.015
1930,0.015
1931,0
1932,0.06
1933,0.135
1934,0.17
1935,0.12
1936,0.1
1937,0.065
1938,0.035
1939,0.01
1940,-0.015
1941,0.03
1942,0.065
1943,0.08
1944,0.11
1945,0.135
1946,0.12
1947,0.045
1948,0.025
1949,0.03
1950,0.025
1951,0.06
1952,0.09
1953,0.095
1954,0.06
1955,0.09
1956,0.07
1957,0.03
1958,-0.025
1959,0.005
1960,0
1961,0.01
1962,0.055
1963,0.115
1964,0.14
1965,0.11
1966,0.08
1967,0.06
1968,0.04
1969,0.06
1970,0.035
1971,0.035
1972,0.11
1973,0.155
1974,0.15
1975,0.125
1976,0.12
1977,0.09
1978,0.02
1979,0.06
1980,0.05
1981,0.115
1982,0.17
1983,0.14
1984,0.17
1985,0.15
1986,0.15
1987,0.115
1988,0.055
1989,0.055
1990,0.065
1991,0.1
1992,0.14
1993,0.15
1994,0.12
1995,0.13
1996,0.11
1997,0.01
1998,-0.01
1999,0.015
2000,0.03
2001,0.035
2002,0.08
2003,0.12
2004,0.09
2005,0.08
2006,0.05
2007,0.04
2008,-0.02
2009,-0.02
2010,0.005
2011,0.005
2012,0.055
2013,0.11
2014,0.12
2015,0.09
2016,0.07
2017,-0.02
2018,-0.045
2019,-0.035
2020,-0.015
2021,0
2022,0.09
2023,0.08
2024,0.115
2025,0.095
2026,0.07
2027,0.01
2028,0.01
2029,0.01
2030,0.015
2031,-0.01
2032,0.07
2033,0.125
2034,0.09
2035,0.055
2036,0.05
2037,-0.025
2038,-0.02
2039,-0.02
2040,-0.035
2041,0
2042,0.055
2043,0.085
2044,0.04
2045,0.025
2046,0.005
2047,-0.02
2048,0
2049,-0.01
2050,0.065
2051,0.175
2052,0.29
2053,0.39
2054,0.495
2055,0.57
2056,0.645
2057,0.745
2058,0.82
2059,0.82
2060,0.84
2061,0.83
2062,0.76
2063,0.7
2064,0.56
2065,0.445
2066,0.285
2067,0.1
2068,-0.035
2069,-0.09
2070,-0.075
2071,-0.025
2072,0.01
2073,0.06
2074,0.115
2075,0.105
2076,0.055
2077,0.035
2078,0.04
2079,0.025
2080,0.02
2081,0.05
2082,0.13
2083,0.13
2084,0.14
2085,0.115
2086,0.055
2087,-0.01
2088,-0.015
2089,0.025
2090,0.055
2091,0.09
2092,0.15
2093,0.17
2094,0.135
2095,0.105
2096,0.065
2097,0.025
2098,0.1
2099,0.05
2100,0.07
2101,0.115
2102,0.145
2103,0.175
2104,0.15
2105,0.125
2106,0.08
2107,0.025
2108,0.065
2109,0.055
2110,0.11
2111,0.14
2112,0.155
2113,0.165
2114,0.17
2115,0.15
2116,0.12
2117,0.115
2118,0.035
2119,0.035
2120,0.08
2121,0.13
2122,0.175
2123,0.17
2124,0.155
2125,0.155
2126,0.115
2127,0.08
2128,0.105
2129,0.14
2130,0.155
2131,0.185
2132,0.2
2133,0.26
2134,0.25
2135,0.19
2136,0.17
2137,0.13
2138,0.11
2139,0.11
2140,0.16
2141,0.23
2142,0.26
2143,0.27
2144,0.285
2145,0.27
2146,0.24
2147,0.21
2148,0.19
2149,0.22
2150,0.235
2151,0.29
2152,0.335
2153,0.315
2154,0.3
2155,0.31
2156,0.265
2157,0.245
2158,0.23
2159,0.27
2160,0.31
2161,0.355
2162,0.38
2163,0.395
2164,0.385
2165,0.36
2166,0.32
2167,0.31
2168,0.285
2169,0.28
2170,0.3
2171,0.365
2172,0.4
2173,0.415
2174,0.42
2175,0.365
2176,0.32
2177,0.305
2178,0.305
2179,0.285
2180,0.28
2181,0.32
2182,0.36
2183,0.32
2184,0.285
2185,0.295
2186,0.245
2187,0.175
2188,0.15
2189,0.175
2190,0.155
2191,0.195
2192,0.225
2193,0.22
2194,0.185
2195,0.135
2196,0.075
2197,0.09
2198,0.06
2199,0.085
2200,0.095
2201,0.13
2202,0.16
2203,0.16
2204,0.16
2205,0.095
2206,0.07
2207,0.065
2208,0.035
2209,0.075
2210,0.075
2211,0.08
2212,0.115
2213,0.115
2214,0.08
2215,0.065
2216,0.04
2217,0.02
2218,0.005
2219,0.035
2220,0.08
2221,0.105
2222,0.1
2223,0.135
2224,0.095
2225,0.09
2226,0.04
2227,0.01
2228,-0.005
2229,0.02
2230,0.025
2231,0.06
2232,0.095
2233,0.135
2234,0.115
2235,0.06
2236,0.055
2237,0.025
2238,0.04
2239,0.095
2240,0.095
2241,0.12
2242,0.155
2243,0.12
2244,0.08
2245,0.06
2246,0.065
2247,0.04
2248,0.03
2249,0.055
2250,0.085
2251,0.13
2252,0.17
2253,0.17
2254,0.145
2255,0.105
2256,0.06
2257,0.035
2258,-0.015
2259,0.04
2260,0.085
2261,0.125
2262,0.125
2263,0.14
2264,0.14
2265,0.09
2266,0.05
2267,0.065
2268,0.02
2269,0.11
2270,0.12
2271,0.145
2272,0.185
2273,0.16
2274,0.115
2275,0.115
2276,0.045
2277,0.015
2278,0.05
2279,0.055
2280,0.11
2281,0.135
2282,0.14
2283,0.13
2284,0.12
2285,0.09
2286,0.065
2287,0.05
2288,0.025
2289,0.045
2290,0.105
2291,0.125
2292,0.135
2293,0.155
2294,0.105
2295,0.08
2296,0.055
2297,0.03
2298,0.025
2299,0.045
2300,0.08
2301,0.155
2302,0.2
2303,0.145
2304,0.085
2305,0.07
2306,0.04
2307,0.035
2308,0.03
2309,0.055
2310,0.15
2311,0.15
2312,0.15
2313,0.145
2314,0.1
2315,0.045
2316,0
2317,0.005
2318,0.015
2319,0.035
2320,0.115
2321,0.075
2322,0.165
2323,0.12
2324,0.09
2325,0.05
2326,0.02
2327,-0.01
2328,0.03
2329,0.05
2330,0.095
2331,0.12
2332,0.13
2333,0.115
2334,0.09
2335,0.04
2336,0.005
2337,0.005
2338,0.055
2339,0.105
2340,0.11
2341,0.125
2342,0.155
2343,0.14
2344,0.11
2345,0.08
2346,0.07
2347,0.06
2348,0.08
2349,0.08
2350,0.115
2351,0.15
2352,0.17
2353,0.14
2354,0.14
2355,0.095
2356,0.03
2357,0.035
2358,0.055
2359,0.12
2360,0.18
2361,0.19
2362,0.18
2363,0.18
2364,0.095
2365,0.045
2366,0.06
2367,0.05
2368,0.05
2369,0.09
2370,0.135
2371,0.15
2372,0.17
2373,0.14
2374,0.11
2375,0.035
2376,0.015
2377,0.01
2378,-0.005
2379,0.04
2380,0.1
2381,0.115
2382,0.105
2383,0.085
2384,0.07
2385,0.03
2386,0.025
2387,-0.04
2388,0.02
2389,0.055
2390,0.095
2391,0.13
2392,0.125
2393,0.065
2394,0.055
2395,-0.02
2396,-0.025
2397,0
2398,0.01
2399,0.07
2400,0.085
2401,0.08
2402,0.09
2403,0.105
2404,0.025
2405,-0.01
2406,-0.01
2407,-0.005
2408,-0.03
2409,0.03
2410,0.1
2411,0.09
2412,0.1
2413,0.065
2414,0.03
2415,-0.04
2416,-0.035
2417,-0.045
2418,-0.035
2419,0.02
2420,0.05
2421,0.055
2422,0.065
2423,0.085
2424,0.15
2425,0.175
2426,0.215
2427,0.275
2428,0.34
2429,0.455
2430,0.635
2431,0.74
2432,0.845
2433,0.855
2434,0.85
2435,0.775
2436,0.7
2437,0.615
2438,0.55
2439,0.52
2440,0.41
2441,0.24
2442,0.11
2443,0.02
2444,-0.06
2445,-0.095
2446,-0.085
2447,-0.04
2448,0.025
2449,0.1
2450,0.13
2451,0.145
2452,0.135
2453,0.085
2454,0.035
2455,0.01
2456,0
2457,0
2458,0.04
2459,0.08
2460,0.095
2461,0.09
2462,0.135
2463,0.09
2464,-0.015
2465,0.015
2466,0.035
2467,0.025
2468,0.05
2469,0.085
2470,0.12
2471,0.105
2472,0.11
2473,0.09
2474,0.06
2475,0.02
2476,0.025
2477,0.04
2478,0.085
2479,0.135
2480,0.13
2481,0.17
2482,0.115
2483,0.11
2484,0.09
2485,0.04
2486,0.035
2487,0.07
2488,0.095
2489,0.17
2490,0.145
2491,0.165
2492,0.15
2493,0.12
2494,0.085
2495,0.035
2496,0.08
2497,0.105
2498,0.11
2499,0.17
2500,0.185
2501,0.19
2502,0.185
2503,0.115
2504,0.11
2505,0.08
2506,0.075
2507,0.085
2508,0.12
2509,0.21
2510,0.205
2511,0.205
2512,0.195
2513,0.16
2514,0.16
2515,0.14
2516,0.135
2517,0.165
2518,0.215
2519,0.265
2520,0.275
2521,0.25
2522,0.22
2523,0.22
2524,0.195
2525,0.185
2526,0.175
2527,0.21
2528,0.28
2529,0.335
2530,0.35
2531,0.345
2532,0.31
2533,0.29
2534,0.275
2535,0.245
2536,0.27
2537,0.285
2538,0.31
2539,0.375
2540,0.43
2541,0.41
2542,0.37
2543,0.345
2544,0.325
2545,0.295
2546,0.275
2547,0.305
2548,0.35
2549,0.41
2550,0.405
2551,0.39
2552,0.325
2553,0.29
2554,0.255
2555,0.24
2556,0.23
2557,0.235
2558,0.275
2559,0.285
2560,0.285
2561,0.295
2562,0.285
2563,0.2
2564,0.155
2565,0.145
2566,0.115
2567,0.13
2568,0.155
2569,0.18
2570,0.185
2571,0.205
2572,0.175
2573,0.115
2574,0.065
2575,0.07
2576,0.06
2577,0.055
2578,0.105
2579,0.15
2580,0.16
2581,0.16
2582,0.075
2583,0.04
2584,0.025
2585,-0.01
2586,-0.01
2587,0.05
2588,0.1
2589,0.09
2590,0.12
2591,0.11
2592,0.105
2593,0.03
2594,-0.005
2595,-0.01
2596,0.005
2597,0.03
2598,0.065
2599,0.09
2600,0.12
2601,0.15
2602,0.085
2603,0.015
2604,0.005
2605,0.025
2606,0.03
2607,0.05
2608,0.075
2609,0.1
2610,0.105
2611,0.125
2612,0.1
2613,0.045
2614,0.02
2615,0.025
2616,0.03
2617,0.06
2618,0.11
2619,0.14
2620,0.135
2621,0.145
2622,0.09
2623,0.06
2624,-0.02
2625,-0.03
2626,0
2627,0.085
2628,0.085
2629,0.11
2630,0.13
2631,0.125
2632,0.105
2633,0.07
2634,0.03
2635,-0.005
2636,0.02
2637,0.06
2638,0.105
2639,0.125
2640,0.15
2641,0.155
2642,0.095
2643,0.055
2644,0.04
2645,0.04
2646,0.025
2647,0.03
2648,0.12
2649,0.135
2650,0.145
2651,0.11
2652,0.12
2653,0.055
2654,0.02
2655,0.03
2656,0.035
2657,0.07
2658,0.12
2659,0.125
2660,0.12
2661,0.125
2662,0.09
2663,0.055
2664,0.045
2665,0.02
2666,0.015
2667,0.055
2668,0.1
2669,0.115
2670,0.125
2671,0.13
2672,0.095
2673,0.045
2674,0.025
2675,0.01
2676,0.025
2677,0.065
2678,0.09
2679,0.12
2680,0.13
2681,0.095
2682,0.095
2683,0.03
2684,0.015
2685,0.02
2686,0.055
2687,0.085
2688,0.085
2689,0.095
2690,0.115
2691,0.06
2692,0.04
2693,0.035
2694,0.015
2695,0.035
2696,0.04
2697,0.065
2698,0.12
2699,0.13
2700,0.13
2701,0.1
2702,0.075
2703,0.02
2704,0.01
2705,0.015
2706,0.035
2707,0.075
2708,0.09
2709,0.08
2710,0.085
2711,0.06
2712,0.07
2713,0.04
2714,0.005
2715,0.015
2716,0.045
2717,0.09
2718,0.15
2719,0.15
2720,0.13
2721,0.12
2722,0.09
2723,0.065
2724,0.045
2725,0.055
2726,0.06
2727,0.075
2728,0.13
2729,0.125
2730,0.125
2731,0.125
2732,0.115
2733,0.07
2734,0.07
2735,0.08
2736,0.12
2737,0.135
2738,0.17
2739,0.205
2740,0.155
2741,0.18
2742,0.125
2743,0.07
2744,0.08
2745,0.1
2746,0.09
2747,0.15
2748,0.135
2749,0.1
2750,0.105
2751,0.115
2752,0.055
2753,0.01
2754,-0.005
2755,0.03
2756,0.04
2757,0.09
2758,0.11
2759,0.12
2760,0.1
2761,0.06
2762,0.065
2763,0.06
2764,0.025
2765,0.035
2766,0.06
2767,0.07
2768,0.095
2769,0.135
2770,0.13
2771,0.07
2772,0.03
2773,-0.015
2774,0.01
2775,0
2776,0
2777,0.105
2778,0.16
2779,0.14
2780,0.12
2781,0.095
2782,0.015
2783,0.01
2784,-0.025
2785,0.005
2786,-0.005
2787,0.07
2788,0.11
2789,0.115
2790,0.11
2791,0.06
2792,-0.01
2793,-0.025
2794,-0.045
2795,-0.005
2796,0.05
2797,0.115
2798,0.115
2799,0.055
2800,0.055
2801,0.02
2802,0.05
2803,0.11
2804,0.165
2805,0.245
2806,0.335
2807,0.455
2808,0.565
2809,0.685
2810,0.805
2811,0.895
2812,0.885
2813,0.855
2814,0.785
2815,0.78
2816,0.695
2817,0.59
2818,0.545
2819,0.415
2820,0.22
2821,0.08
2822,-0.02
2823,-0.09
2824,-0.04
2825,0
2826,0.01
2827,0.065
2828,0.115
2829,0.155
2830,0.145
2831,0.13
2832,0.1
2833,0.075
2834,0.04
2835,0.07
2836,0.095
2837,0.125
2838,0.15
2839,0.17
2840,0.135
2841,0.095
2842,0.05
2843,0.04
2844,0.06
2845,0.1
2846,0.11
2847,0.14
2848,0.14
2849,0.175
2850,0.15
2851,0.12
2852,0.12
2853,0.055
2854,0.045
2855,0.06
2856,0.13
2857,0.175
2858,0.18
2859,0.15
2860,0.155
2861,0.115
2862,0.075
2863,0.115
2864,0.085
2865,0.145
2866,0.155
2867,0.15
2868,0.165
2869,0.165
2870,0.185
2871,0.135
2872,0.1
2873,0.095
2874,0.08
2875,0.125
2876,0.15
2877,0.21
2878,0.215
2879,0.195
2880,0.16
2881,0.14
2882,0.125
2883,0.115
2884,0.11
2885,0.155
2886,0.175
2887,0.255
2888,0.265
2889,0.245
2890,0.21
2891,0.175
2892,0.15
2893,0.185
2894,0.18
2895,0.16
2896,0.22
2897,0.275
2898,0.285
2899,0.28
2900,0.28
2901,0.24
2902,0.225
2903,0.22
2904,0.235
2905,0.255
2906,0.3
2907,0.34
2908,0.325
2909,0.355
2910,0.37
2911,0.325
2912,0.28
2913,0.285
2914,0.325
2915,0.31
2916,0.355
2917,0.42
2918,0.45
2919,0.44
2920,0.395
2921,0.315
2922,0.285
2923,0.31
2924,0.315
2925,0.365
2926,0.41
2927,0.435
2928,0.45
2929,0.42
2930,0.4
2931,0.335
2932,0.265
2933,0.305
2934,0.285
2935,0.295
2936,0.335
2937,0.335
2938,0.375
2939,0.33
2940,0.26
2941,0.215
2942,0.205
2943,0.185
2944,0.17
2945,0.19
2946,0.285
2947,0.235
2948,0.22
2949,0.19
2950,0.15
2951,0.135
2952,0.09
2953,0.095
2954,0.105
2955,0.125
2956,0.165
2957,0.16
2958,0.165
2959,0.135
2960,0.12
2961,0.085
2962,0.065
2963,0.035
2964,0.075
2965,0.08
2966,0.135
2967,0.15
2968,0.145
2969,0.14
2970,0.105
2971,0.06
2972,0.04
2973,0.045
2974,0.055
2975,0.09
2976,0.11
2977,0.125
2978,0.11
2979,0.115
2980,0.095
2981,0.05
2982,0.045
2983,0.035
2984,0.06
2985,0.085
2986,0.125
2987,0.13
2988,0.105
2989,0.13
2990,0.105
2991,0.04
2992,0.035
2993,0.04
2994,0.06
2995,0.105
2996,0.135
2997,0.165
2998,0.18
2999,0.155
3000,0.12
3001,0.065
3002,0.05
3003,0.055
3004,0.07
3005,0.11
3006,0.145
3007,0.16
3008,0.14
3009,0.12
3010,0.13
3011,0.085
3012,0.05
3013,0.065
3014,0.08
3015,0.12
3016,0.17
3017,0.185
3018,0.155
3019,0.145
3020,0.115
3021,0.08
3022,0.075
3023,0.07
3024,0.1
3025,0.105
3026,0.155
3027,0.175
3028,0.16
3029,0.15
3030,0.09
3031,0.06
3032,0.085
3033,0.05
3034,0.085
3035,0.135
3036,0.14
3037,0.16
3038,0.165
3039,0.14
3040,0.095
3041,0.05
3042,0.055
3043,0.085
3044,0.085
3045,0.135
3046,0.125
3047,0.17
3048,0.15
3049,0.12
3050,0.075
3051,0.065
3052,0.03
3053,0.085
3054,0.09
3055,0.135
3056,0.15
3057,0.155
3058,0.18
3059,0.125
3060,0.085
3061,0.065
3062,0.05
3063,0.035
3064,0.05
3065,0.095
3066,0.135
3067,0.15
3068,0.125
3069,0.1
3070,0.07
3071,0.085
3072,0.035
3073,0.055
3074,0.09
3075,0.13
3076,0.175
3077,0.16
3078,0.14
3079,0.13
3080,0.03
3081,0.025
3082,0.035
3083,0.04
3084,0.09
3085,0.125
3086,0.14
3087,0.165
3088,0.135
3089,0.135
3090,0.07
3091,0.04
3092,0.03
3093,0.06
3094,0.07
3095,0.125
3096,0.185
3097,0.175
3098,0.13
3099,0.135
3100,0.07
3101,0.05
3102,0.075
3103,0.09
3104,0.1
3105,0.13
3106,0.16
3107,0.17
3108,0.175
3109,0.11
3110,0.055
3111,0.04
3112,0.035
3113,0.075
3114,0.1
3115,0.175
3116,0.21
3117,0.22
3118,0.2
3119,0.165
3120,0.11
3121,0.075
3122,0.085
3123,0.11
3124,0.165
3125,0.19
3126,0.205
3127,0.195
3128,0.15
3129,0.12
3130,0.055
3131,0.05
3132,0.055
3133,0.07
3134,0.11
3135,0.145
3136,0.11
3137,0.11
3138,0.105
3139,0.095
3140,0.04
3141,0.03
3142,0.05
3143,0.055
3144,0.065
3145,0.105
3146,0.165
3147,0.155
3148,0.13
3149,0.075
3150,0.015
3151,0.005
3152,-0.01
3153,-0.005
3154,0.075
3155,0.09
3156,0.125
3157,0.135
3158,0.08
3159,0.03
3160,0.01
3161,0.035
3162,0.045
3163,0.045
3164,0.06
3165,0.135
3166,0.135
3167,0.125
3168,0.075
3169,0.065
3170,-0.005
3171,-0.02
3172,0.005
3173,0.03
3174,0.055
3175,0.07
3176,0.125
3177,0.09
3178,0.035
3179,0.025
3180,-0.025
3181,-0.02
3182,0
3183,0.06
3184,0.155
3185,0.26
3186,0.325
3187,0.41
3188,0.47
3189,0.485
3190,0.54
3191,0.725
3192,0.855
3193,0.905
3194,0.95
3195,0.925
3196,0.87
3197,0.76
3198,0.63
3199,0.46
3200,0.285
3201,0.135
3202,0.05
3203,-0.02
3204,0
3205,0.03
3206,0.08
3207,0.075
3208,0.09
3209,0.075
3210,0.01
3211,0.03
3212,0.075
3213,0.095
3214,0.13
3215,0.145
3216,0.15
3217,0.15
3218,0.12
3219,0.085
3220,0.055
3221,0.015
3222,0.06
3223,0.05
3224,0.115
3225,0.14
3226,0.14
3227,0.155
3228,0.135
3229,0.06
3230,0.075
3231,0.04
3232,0.045
3233,0.09
3234,0.145
3235,0.145
3236,0.17
3237,0.145
3238,0.13
3239,0.09
3240,0.07
3241,0.055
3242,0.095
3243,0.09
3244,0.16
3245,0.175
3246,0.185
3247,0.145
3248,0.15
3249,0.115
3250,0.09
3251,0.07
3252,0.095
3253,0.115
3254,0.155
3255,0.16
3256,0.17
3257,0.16
3258,0.16
3259,0.13
3260,0.1
3261,0.115
3262,0.12
3263,0.125
3264,0.22
3265,0.235
3266,0.205
3267,0.21
3268,0.18
3269,0.13
3270,0.105
3271,0.145
3272,0.145
3273,0.2
3274,0.245
3275,0.275
3276,0.275
3277,0.255
3278,0.24
3279,0.165
3280,0.17
3281,0.195
3282,0.23
3283,0.27
3284,0.3
3285,0.315
3286,0.335
3287,0.335
3288,0.335
3289,0.28
3290,0.245
3291,0.24
3292,0.285
3293,0.305
3294,0.335
3295,0.38
3296,0.39
3297,0.36
3298,0.355
3299,0.295
3300,0.24
3301,0.285
3302,0.325
3303,0.35
3304,0.42
3305,0.445
3306,0.425
3307,0.41
3308,0.37
3309,0.305
3310,0.275
3311,0.265
3312,0.295
3313,0.345
3314,0.375
3315,0.365
3316,0.34
3317,0.335
3318,0.29
3319,0.25
3320,0.19
3321,0.185
3322,0.175
3323,0.215
3324,0.26
3325,0.24
3326,0.25
3327,0.205
3328,0.165
3329,0.12
3330,0.125
3331,0.11
3332,0.125
3333,0.135
3334,0.16
3335,0.185
3336,0.22
3337,0.165
3338,0.065
3339,0.03
3340,0.035
3341,0.04
3342,0.06
3343,0.11
3344,0.095
3345,0.11
3346,0.13
3347,0.105
3348,0.05
3349,0.015
3350,-0.005
3351,0.01
3352,0.06
3353,0.13
3354,0.125
3355,0.1
3356,0.11
3357,0.065
3358,0.035
3359,0.025
3360,-0.02
3361,-0.025
3362,0.06
3363,0.075
3364,0.09
3365,0.105
3366,0.1
3367,0.1
3368,0.025
3369,0.03
3370,0.035
3371,0.03
3372,0.085
3373,0.1
3374,0.12
3375,0.115
3376,0.135
3377,0.1
3378,0.045
3379,0
3380,-0.01
3381,0.05
3382,0.06
3383,0.11
3384,0.13
3385,0.15
3386,0.13
3387,0.08
3388,0.04
3389,0.025
3390,0
3391,-0.005
3392,0.055
3393,0.09
3394,0.09
3395,0.15
3396,0.15
3397,0.105
3398,0.02
3399,-0.03
3400,-0.005
3401,0.025
3402,0.055
3403,0.115
3404,0.145
3405,0.155
3406,0.115
3407,0.11
3408,0.075
3409,0.02
3410,-0.015
3411,0.075
3412,0.09
3413,0.12
3414,0.145
3415,0.105
3416,0.105
3417,0.095
3418,0.05
3419,0.01
3420,0.015
3421,0.005
3422,0.07
3423,0.115
3424,0.125
3425,0.105
3426,0.075
3427,0.075
3428,0.025
3429,0.01
3430,0
3431,0.02
3432,0.06
3433,0.12
3434,0.09
3435,0.11
3436,0.1
3437,0.055
3438,0.035
3439,0.005
3440,-0.005
3441,-0.005
3442,0.085
3443,0.125
3444,0.155
3445,0.155
3446,0.115
3447,0.05
3448,0.02
3449,0.025
3450,0.005
3451,0.02
3452,0.055
3453,0.105
3454,0.13
3455,0.135
3456,0.085
3457,0.045
3458,0.01
3459,-0.005
3460,0.035
3461,0.045
3462,0.095
3463,0.135
3464,0.15
3465,0.12
3466,0.09
3467,0.08
3468,0.045
3469,0.005
3470,-0.015
3471,0.025
3472,0.085
3473,0.13
3474,0.135
3475,0.16
3476,0.125
3477,0.13
3478,0.075
3479,0.045
3480,0.065
3481,0.09
3482,0.16
3483,0.15
3484,0.16
3485,0.18
3486,0.15
3487,0.095
3488,0.07
3489,0.06
3490,0.035
3491,0.065
3492,0.13
3493,0.135
3494,0.12
3495,0.11
3496,0.075
3497,0.01
3498,-0.005
3499,-0.03
3500,-0.01
3501,0.02
3502,0.065
3503,0.085
3504,0.08
3505,0.105
3506,0.11
3507,0.06
3508,-0.015
3509,-0.015
3510,-0.02
3511,0.01
3512,0.06
3513,0.09
3514,0.105
3515,0.085
3516,0.08
3517,0.005
3518,-0.02
3519,-0.015
3520,0.025
3521,0.015
3522,0.055
3523,0.09
3524,0.09
3525,0.075
3526,0.08
3527,-0.005
3528,-0.045
3529,-0.065
3530,-0.035
3531,0.005
3532,0.05
3533,0.06
3534,0.095
3535,0.09
3536,0.055
3537,-0.01
3538,-0.03
3539,-0.04
3540,-0.03
3541,-0.015
3542,0.03
3543,0.03
3544,0.06
3545,0.06
3546,0.045
3547,0.07
3548,0.12
3549,0.175
3550,0.23
3551,0.38
3552,0.505
3553,0.63
3554,0.795
3555,0.85
3556,0.825
3557,0.795
3558,0.725
3559,0.65
3560,0.545
3561,0.475
3562,0.415
3563,0.385
3564,0.215
3565,0.08
3566,-0.04
3567,-0.1
3568,-0.09
3569,-0.135
3570,-0.08
3571,-0.02
3572,0.06
3573,0.1
3574,0.12
3575,0.115
3576,0.06
3577,0.02
3578,0.04
3579,0.01
3580,0.03
3581,0.065
3582,0.085
3583,0.16
3584,0.16
3585,0.075
3586,0.03
3587,0.02
3588,0.01
3589,0.035
3590,0.025
3591,0.075
3592,0.1
3593,0.135
3594,0.125
3595,0.085
3596,0.08
3597,0.055
3598,0.015
3599,0.065
3600,0.05
3601,0.12
3602,0.145
3603,0.155
3604,0.16
3605,0.14
3606,0.08
3607,0.045
3608,0.06
3609,0.04
3610,0.05
3611,0.085
3612,0.15
3613,0.18
3614,0.185
3615,0.15
3616,0.095
3617,0.085
3618,0.06
3619,0.055
3620,0.065
3621,0.14
3622,0.18
3623,0.185
3624,0.18
3625,0.16
3626,0.125
3627,0.105
3628,0.07
3629,0.085
3630,0.135
3631,0.175
3632,0.2
3633,0.2
3634,0.19
3635,0.21
3636,0.185
3637,0.15
3638,0.135
3639,0.125
3640,0.14
3641,0.195
3642,0.265
3643,0.29
3644,0.295
3645,0.235
3646,0.2
3647,0.19
3648,0.215
3649,0.205
3650,0.23
3651,0.315
3652,0.335
3653,0.325
3654,0.34
3655,0.33
3656,0.29
3657,0.28
3658,0.265
3659,0.3
3660,0.245
3661,0.31
3662,0.36
3663,0.39
3664,0.395
3665,0.34
3666,0.285
3667,0.265
3668,0.285
3669,0.31
3670,0.325
3671,0.36
3672,0.4
3673,0.39
3674,0.39
3675,0.365
3676,0.3
3677,0.225
3678,0.21
3679,0.23
3680,0.255
3681,0.285
3682,0.285
3683,0.285
3684,0.29
3685,0.255
3686,0.185
3687,0.16
3688,0.15
3689,0.14
3690,0.17
3691,0.19
3692,0.2
3693,0.17
3694,0.155
3695,0.125
3696,0.09
3697,0.06
3698,0.015
3699,0.055
3700,0.03
3701,0.07
3702,0.13
3703,0.115
3704,0.145
3705,0.125
3706,0.045
3707,0.03
3708,0.015
3709,0.025
3710,0.065
3711,0.09
3712,0.085
3713,0.16
3714,0.115
3715,0.065
3716,0.025
3717,-0.01
3718,-0.015
3719,0.01
3720,0.07
3721,0.09
3722,0.1
3723,0.105
3724,0.09
3725,0.055
3726,0.01
3727,0.005
3728,0.005
3729,0.055
3730,0.05
3731,0.09
3732,0.105
3733,0.125
3734,0.11
3735,0.055
3736,0.005
3737,0.005
3738,-0.005
3739,0.015
3740,0.055
3741,0.08
3742,0.1
3743,0.125
3744,0.1
3745,0.065
3746,0.045
3747,0.025
3748,0.005
3749,0.02
3750,0.07
3751,0.12
3752,0.13
3753,0.1
3754,0.1
3755,0.085
3756,0.08
3757,0.055
3758,0.03
3759,0.04
3760,0.085
3761,0.165
3762,0.18
3763,0.14
3764,0.095
3765,0.045
3766,-0.005
3767,-0.01
3768,-0.015
3769,0.045
3770,0.075
3771,0.125
3772,0.145
3773,0.12
3774,0.11
3775,0.06
3776,0.025
3777,0.01
3778,0.01
3779,0.07
3780,0.105
3781,0.095
3782,0.12
3783,0.125
3784,0.09
3785,0.055
3786,0.03
3787,0.01
3788,0
3789,0.025
3790,0.06
3791,0.095
3792,0.14
3793,0.095
3794,0.055
3795,0.015
3796,0
3797,0.02
3798,0.07
3799,0.02
3800,0.055
3801,0.09
3802,0.115
3803,0.1
3804,0.09
3805,0.05
3806,0.03
3807,0
3808,0.005
3809,0.01
3810,0.05
3811,0.105
3812,0.12
3813,0.085
3814,0.065
3815,0.035
3816,0
3817,0.005
3818,-0.03
3819,0.025
3820,0.075
3821,0.11
3822,0.115
3823,0.08
3824,0.05
3825,0.015
3826,-0.025
3827,-0.04
3828,-0.01
3829,0.065
3830,0.095
3831,0.115
3832,0.13
3833,0.105
3834,0.07
3835,0.045
3836,0.05
3837,0.03
3838,0.025
3839,0.035
3840,0.09
3841,0.095
3842,0.115
3843,0.135
3844,0.085
3845,0.05
3846,0.035
3847,0.065
3848,0.065
3849,0.09
3850,0.13
3851,0.15
3852,0.19
3853,0.165
3854,0.14
3855,0.085
3856,0.065
3857,0.08
3858,0.085
3859,0.045
3860,0.09
3861,0.17
3862,0.17
3863,0.115
3864,0.085
3865,0.03
3866,-0.015
3867,-0.02
3868,0.015
3869,0.045
3870,0.065
3871,0.075
3872,0.085
3873,0.085
3874,0.06
3875,-0.01
3876,-0.02
3877,0
3878,0.01
3879,0.055
3880,0.075
3881,0.08
3882,0.095
3883,0.08
3884,0.02
3885,-0.06
3886,-0.04
3887,-0.04
3888,-0.025
3889,0.015
3890,0.075
3891,0.115
3892,0.135
3893,0.08
3894,0.035
3895,-0.02
3896,-0.035
3897,-0.01
3898,0.01
3899,0.015
3900,0.08
3901,0.085
3902,0.085
3903,0.065
3904,0.01
3905,-0.045
3906,-0.07
3907,-0.07
3908,-0.055
3909,0.03
3910,0.08
3911,0.06
3912,0.055
3913,0.035
3914,0.005
3915,-0.015
3916,0.045
3917,0.12
3918,0.19
3919,0.3
3920,0.415
3921,0.5
3922,0.625
3923,0.7
3924,0.8
3925,0.84
3926,0.795
3927,0.775
3928,0.705
3929,0.675
3930,0.64
3931,0.525
3932,0.41
3933,0.22
3934,0.085
3935,-0.07
3936,-0.14
3937,-0.1
3938,-0.07
3939,0.01
3940,0.08
3941,0.095
3942,0.095
3943,0.125
3944,0.055
3945,0.035
3946,0.04
3947,0.03
3948,0.055
3949,0.09
3950,0.125
3951,0.15
3952,0.14
3953,0.12
3954,0.065
3955,0.035
3956,0.025
3957,0.035
3958,0.025
3959,0.095
3960,0.12
3961,0.14
3962,0.16
3963,0.11
3964,0.045
3965,0.02
3966,0.01
3967,0.03
3968,0.065
3969,0.12
3970,0.155
3971,0.15
3972,0.14
3973,0.135
3974,0.09
3975,0.08
3976,0.09
3977,0.06
3978,0.07
3979,0.125
3980,0.15
3981,0.16
3982,0.16
3983,0.13
3984,0.065
3985,0.035
3986,0.06
3987,0.09
3988,0.11
3989,0.16
3990,0.205
3991,0.215
3992,0.18
3993,0.155
3994,0.11
3995,0.06
3996,0.06
3997,0.075
3998,0.125
3999,0.165
4000,0.19
4001,0.24
4002,0.185
4003,0.18
4004,0.16
4005,0.135
4006,0.165
4007,0.14
4008,0.155
4009,0.245
4010,0.285
4011,0.315
4012,0.235
4013,0.215
4014,0.23
4015,0.19
4016,0.17
4017,0.205
4018,0.225
4019,0.305
4020,0.335
4021,0.335
4022,0.34
4023,0.32
4024,0.255
4025,0.27
4026,0.275
4027,0.28
4028,0.31
4029,0.375
4030,0.41
4031,0.4
4032,0.38
4033,0.345
4034,0.33
4035,0.315
4036,0.29
4037,0.3
4038,0.345
4039,0.39
4040,0.405
4041,0.425
4042,0.39
4043,0.31
4044,0.28
4045,0.28
4046,0.28
4047,0.315
4048,0.305
4049,0.345
4050,0.37
4051,0.36
4052,0.325
4053,0.25
4054,0.21
4055,0.185
4056,0.155
4057,0.195
4058,0.22
4059,0.24
4060,0.22
4061,0.245
4062,0.175
4063,0.13
4064,0.08
4065,0.05
4066,0.05
4067,0.1
4068,0.145
4069,0.165
4070,0.145
4071,0.13
4072,0.12
4073,0.11
4074,0.075
4075,0.05
4076,0.035
4077,0.06
4078,0.1
4079,0.105
4080,0.12
4081,0.14
4082,0.12
4083,0.085
4084,0.06
4085,0.035
4086,0.03
4087,0.055
4088,0.115
4089,0.16
4090,0.15
4091,0.12
4092,0.115
4093,0.055
4094,0.06
4095,0.03
4096,0.02
4097,0.06
4098,0.115
4099,0.1
4100,0.12
4101,0.13
4102,0.125
4103,0.055
4104,0.045
4105,0.035
4106,0.02
4107,0.065
4108,0.125
4109,0.13
4110,0.165
4111,0.155
4112,0.12
4113,0.07
4114,0.035
4115,0.055
4116,0.025
4117,0.06
4118,0.13
4119,0.14
4120,0.15
4121,0.13
4122,0.12
4123,0.085
4124,0.065
4125,0.045
4126,0.075
4127,0.095
4128,0.16
4129,0.14
4130,0.15
4131,0.145
4132,0.115
4133,0.055
4134,0.05
4135,0.04
4136,0.075
4137,0.115
4138,0.15
4139,0.12
4140,0.115
4141,0.13
4142,0.12
4143,0.08
4144,0.03
4145,0.055
4146,0.055
4147,0.075
4148,0.13
4149,0.135
4150,0.17
4151,0.15
4152,0.115
4153,0.055
4154,0.055
4155,0.055
4156,0.065
4157,0.105
4158,0.145
4159,0.105
4160,0.135
4161,0.13
4162,0.105
4163,0.08
4164,0.055
4165,0.035
4166,0.055
4167,0.085
4168,0.12
4169,0.14
4170,0.19
4171,0.14
4172,0.085
4173,0.06
4174,0.02
4175,0.05
4176,0.065
4177,0.05
4178,0.11
4179,0.11
4180,0.12
4181,0.095
4182,0.125
4183,0.08
4184,0.035
4185,0.01
4186,0.055
4187,0.09
4188,0.125
4189,0.145
4190,0.16
4191,0.135
4192,0.095
4193,0.04
4194,0.09
4195,0.06
4196,0.085
4197,0.105
4198,0.145
4199,0.16
4200,0.19
4201,0.165
4202,0.115
4203,0.07
4204,0.055
4205,0.08
4206,0.09
4207,0.08
4208,0.16
4209,0.165
4210,0.16
4211,0.165
4212,0.135
4213,0.11
4214,0.09
4215,0.08
4216,0.1
4217,0.155
4218,0.16
4219,0.17
4220,0.19
4221,0.2
4222,0.155
4223,0.12
4224,0.12
4225,0.075
4226,0.09
4227,0.105
4228,0.12
4229,0.145
4230,0.135
4231,0.11
4232,0.04
4233,0.025
4234,0.02
4235,0.02
4236,0.05
4237,0.085
4238,0.125
4239,0.125
4240,0.11
4241,0.1
4242,0.085
4243,0.035
4244,0
4245,0.03
4246,0.025
4247,0.075
4248,0.125
4249,0.1
4250,0.13
4251,0.105
4252,0.055
4253,0.04
4254,0
4255,-0.01
4256,0.035
4257,0.07
4258,0.1
4259,0.05
4260,0.105
4261,0.08
4262,0.025
4263,-0.005
4264,-0.01
4265,-0.01
4266,0.04
4267,0.055
4268,0.135
4269,0.14
4270,0.11
4271,0.07
4272,0.02
4273,-0.05
4274,-0.025
4275,-0.005
4276,0.01
4277,0.025
4278,0.065
4279,0.065
4280,0.075
4281,0.1
4282,0.11
4283,0.17
4284,0.215
4285,0.315
4286,0.4
4287,0.535
4288,0.695
4289,0.845
4290,0.92
4291,0.92
4292,0.855
4293,0.79
4294,0.73
4295,0.65
4296,0.545
4297,0.515
4298,0.405
4299,0.255
4300,0.09
4301,-0.05
4302,-0.08
4303,-0.025
4304,-0.035
4305,-0.01
4306,0.035
4307,0.12
4308,0.165
4309,0.16
4310,0.17
4311,0.14
4312,0.06
4313,0.03
4314,0.015
4315,0.045
4316,0.06
4317,0.105
4318,0.16
4319,0.18
4320,0.145
4321,0.115
4322,0.05
4323,0.01
4324,0.025
4325,0.055
4326,0.08
4327,0.145
4328,0.14
4329,0.17
4330,0.125
4331,0.105
4332,0.065
4333,0.06
4334,0.04
4335,0.06
4336,0.115
4337,0.15
4338,0.175
4339,0.17
4340,0.155
4341,0.145
4342,0.105
4343,0.055
4344,0.07
4345,0.1
4346,0.115
4347,0.185
4348,0.21
4349,0.2
4350,0.165
4351,0.155
4352,0.105
4353,0.09
4354,0.11
4355,0.115
4356,0.155
4357,0.2
4358,0.22
4359,0.225
4360,0.2
4361,0.175
4362,0.135
4363,0.08
4364,0.095
4365,0.135
4366,0.195
4367,0.21
4368,0.255
4369,0.26
4370,0.235
4371,0.2
4372,0.17
4373,0.16
4374,0.185
4375,0.185
4376,0.23
4377,0.26
4378,0.32
4379,0.31
4380,0.3
4381,0.27
4382,0.235
4383,0.22
4384,0.23
4385,0.245
4386,0.325
4387,0.355
4388,0.37
4389,0.385
4390,0.35
4391,0.32
4392,0.305
4393,0.31
4394,0.29
4395,0.3
4396,0.38
4397,0.415
4398,0.41
4399,0.42
4400,0.37
4401,0.34
4402,0.335
4403,0.295
4404,0.31
4405,0.355
4406,0.38
4407,0.43
4408,0.41
4409,0.39
4410,0.37
4411,0.33
4412,0.31
4413,0.305
4414,0.285
4415,0.295
4416,0.295
4417,0.35
4418,0.35
4419,0.29
4420,0.26
4421,0.225
4422,0.18
4423,0.145
4424,0.165
4425,0.18
4426,0.245
4427,0.23
4428,0.2
4429,0.19
4430,0.195
4431,0.1
4432,0.085
4433,0.09
4434,0.095
4435,0.12
4436,0.145
4437,0.17
4438,0.175
4439,0.145
4440,0.105
4441,0.1
4442,0.06
4443,0.03
4444,0.07
4445,0.08
4446,0.115
4447,0.135
4448,0.14
4449,0.125
4450,0.11
4451,0.075
4452,0.025
4453,0.005
4454,0.03
4455,0.085
4456,0.13
4457,0.135
4458,0.125
4459,0.13
4460,0.1
4461,0.06
4462,0.035
4463,0.015
4464,0.035
4465,0.035
4466,0.115
4467,0.18
4468,0.165
4469,0.14
4470,0.105
4471,0.05
4472,0.005
4473,0.025
4474,0.095
4475,0.1
4476,0.12
4477,0.145
4478,0.15
4479,0.135
4480,0.105
4481,0.065
4482,0.045
4483,0.055
4484,0.045
4485,0.1
4486,0.14
4487,0.17
4488,0.18
4489,0.145
4490,0.08
4491,0.055
4492,0.03
4493,0.035
4494,0.06
4495,0.115
4496,0.15
4497,0.15
4498,0.155
4499,0.135
4500,0.11
4501,0.03
4502,0.02
4503,0.045
4504,0.05
4505,0.1
4506,0.17
4507,0.165
4508,0.125
4509,0.13
4510,0.085
4511,0.045
4512,0.045
4513,0.04
4514,0.05
4515,0.105
4516,0.13
4517,0.145
4518,0.155
4519,0.13
4520,0.125
4521,0.05
4522,0.015
4523,0.005
4524,0.015
4525,0.095
4526,0.145
4527,0.16
4528,0.15
4529,0.13
4530,0.07
4531,0.03
4532,0.035
4533,0.06
4534,0.055
4535,0.05
4536,0.085
4537,0.135
4538,0.14
4539,0.1
4540,0.055
4541,0.055
4542,0.02
4543,0.03
4544,0.035
4545,0.09
4546,0.12
4547,0.115
4548,0.12
4549,0.11
4550,0.055
4551,0.005
4552,0.01
4553,0.025
4554,0.05
4555,0.08
4556,0.095
4557,0.125
4558,0.165
4559,0.11
4560,0.055
4561,0.07
4562,0.04
4563,0.045
4564,0.04
4565,0.1
4566,0.135
4567,0.155
4568,0.145
4569,0.09
4570,0.065
4571,0.08
4572,0.045
4573,0.075
4574,0.09
4575,0.075
4576,0.105
4577,0.15
4578,0.155
4579,0.15
4580,0.12
4581,0.05
4582,0.045
4583,0.09
4584,0.115
4585,0.145
4586,0.185
4587,0.175
4588,0.15
4589,0.14
4590,0.11
4591,0.06
4592,0.095
4593,0.105
4594,0.065
4595,0.125
4596,0.165
4597,0.16
4598,0.12
4599,0.085
4600,0.04
4601,0.03
4602,-0.01
4603,0.005
4604,0.03
4605,0.1
4606,0.14
4607,0.13
4608,0.105
4609,0.07
4610,0.04
4611,0.015
4612,-0.015
4613,0.03
4614,0.055
4615,0.115
4616,0.14
4617,0.135
4618,0.09
4619,0.055
4620,-0.01
4621,-0.01
4622,-0.01
4623,0.015
4624,0.035
4625,0.095
4626,0.11
4627,0.12
4628,0.1
4629,0.08
4630,0.01
4631,-0.01
4632,0.005
4633,0.015
4634,0.05
4635,0.1
4636,0.11
4637,0.09
4638,0.065
4639,0.06
4640,-0.005
4641,0
4642,-0.035
4643,-0.005
4644,0.01
4645,0.045
4646,0.07
4647,0.06
4648,0.035
4649,0.07
4650,0.11
4651,0.13
4652,0.15
4653,0.23
4654,0.36
4655,0.47
4656,0.61
4657,0.71
4658,0.815
4659,0.89
4660,0.815
4661,0.82
4662,0.795
4663,0.715
4664,0.61
4665,0.545
4666,0.445
4667,0.305
4668,0.135
4669,0
4670,-0.11
4671,-0.105
4672,-0.06
4673,-0.03
4674,0.02
4675,0.08
4676,0.115
4677,0.145
4678,0.155
4679,0.085
4680,0.02
4681,0.01
4682,0.01
4683,0.01
4684,0.08
4685,0.105
4686,0.12
4687,0.115
4688,0.12
4689,0.11
4690,0.045
4691,0.03
4692,0.025
4693,0.045
4694,0.085
4695,0.115
4696,0.135
4697,0.12
4698,0.075
4699,0.03
4700,0.02
4701,0.045
4702,0.025
4703,0.045
4704,0.115
4705,0.165
4706,0.17
4707,0.155
4708,0.14
4709,0.09
4710,0.06
4711,0.045
4712,0.05
4713,0.075
4714,0.105
4715,0.115
4716,0.13
4717,0.135
4718,0.135
4719,0.115
4720,0.09
4721,0.045
4722,0.055
4723,0.095
4724,0.135
4725,0.18
4726,0.19
4727,0.175
4728,0.135
4729,0.12
4730,0.09
4731,0.065
4732,0.1
4733,0.13
4734,0.145
4735,0.2
4736,0.205
4737,0.195
4738,0.175
4739,0.115
4740,0.11
4741,0.135
4742,0.135
4743,0.195
4744,0.235
4745,0.255
4746,0.265
4747,0.255
4748,0.235
4749,0.175
4750,0.16
4751,0.17
4752,0.17
4753,0.195
4754,0.25
4755,0.33
4756,0.335
4757,0.33
4758,0.305
4759,0.255
4760,0.225
4761,0.225
4762,0.28
4763,0.31
4764,0.34
4765,0.35
4766,0.37
4767,0.355
4768,0.3
4769,0.275
4770,0.255
4771,0.28
4772,0.305
4773,0.275
4774,0.365
4775,0.375
4776,0.365
4777,0.355
4778,0.33
4779,0.27
4780,0.235
4781,0.245
4782,0.26
4783,0.26
4784,0.29
4785,0.25
4786,0.265
4787,0.225
4788,0.175
4789,0.135
4790,0.125
4791,0.075
4792,0.105
4793,0.13
4794,0.19
4795,0.205
4796,0.195
4797,0.145
4798,0.11
4799,0.09
4800,0.07
4801,0.04
4802,0.05
4803,0.085
4804,0.1
4805,0.08
4806,0.07
4807,0.105
4808,0.07
4809,0.03
4810,-0.02
4811,-0.025
4812,0.01
4813,0.035
4814,0.06
4815,0.08
4816,0.11
4817,0.065
4818,0.02
4819,-0.045
4820,-0.02
4821,0.015
4822,0.055
4823,0.055
4824,0.035
4825,0.065
4826,0.095
4827,0.1
4828,0.035
4829,-0.035
4830,-0.03
4831,-0.045
4832,-0.01
4833,0.055
4834,0.075
4835,0.13
4836,0.12
4837,0.08
4838,0.045
4839,-0.015
4840,-0.015
4841,0
4842,0.01
4843,0.05
4844,0.075
4845,0.075
4846,0.055
4847,0.07
4848,0.045
4849,0.035
4850,0.01
4851,-0.01
4852,0.015
4853,0.04
4854,0.055
4855,0.085
4856,0.095
4857,0.095
4858,0.045
4859,0
4860,-0.015
4861,0.01
4862,0.085
4863,0.08
4864,0.07
4865,0.13
4866,0.12
4867,0.055
4868,-0.01
4869,-0.01
4870,-0.005
4871,0.015
4872,0.045
4873,0.08
4874,0.12
4875,0.12
4876,0.09
4877,0.07
4878,0.025
4879,0.01
4880,-0.02
4881,-0.005
4882,0.01
4883,0.09
4884,0.09
4885,0.07
4886,0.065
4887,0.05
4888,0.04
4889,-0.01
4890,-0.025
4891,0.025
4892,0.03
4893,0.035
4894,0.105
4895,0.12
4896,0.12
4897,0.065
4898,-0.015
4899,-0.02
4900,-0.045
4901,0.005
4902,0.045
4903,0.12
4904,0.1
4905,0.08
4906,0.055
4907,0.06
4908,0.02
4909,-0.01
4910,-0.025
4911,-0.02
4912,0.015
4913,0.085
4914,0.105
4915,0.1
4916,0.055
4917,0.055
4918,-0.02
4919,-0.005
4920,0.015
4921,0.005
4922,0.045
4923,0.1
4924,0.105
4925,0.12
4926,0.11
4927,0.075
4928,0.015
4929,-0.015
4930,-0.01
4931,0.01
4932,0.055
4933,0.105
4934,0.165
4935,0.155
4936,0.13
4937,0.095
4938,0.055
4939,0.035
4940,0.035
4941,0.05
4942,0.065
4943,0.14
4944,0.21
4945,0.175
4946,0.09
4947,0.06
4948,0.05
4949,0.02
4950,0.02
4951,0.01
4952,0.025
4953,0.085
4954,0.075
4955,0.055
4956,0.045
4957,0.005
4958,0.005
4959,-0.03
4960,-0.035
4961,0
4962,0.005
4963,0.05
4964,0.085
4965,0.105
4966,0.05
4967,-0.005
4968,-0.03
4969,-0.05
4970,-0.035
4971,-0.025
4972,0.015
4973,0.02
4974,0.05
4975,0.04
4976,0.04
4977,0.01
4978,-0.035
4979,-0.04
4980,-0.01
4981,0.015
4982,-0.005
4983,0.05
4984,0.07
4985,0.07
4986,0.04
4987,0.005
4988,-0.045
4989,-0.045
4990,-0.03
4991,-0.02
4992,-0.005
4993,0.045
4994,0.07
4995,0.045
4996,0.05
4997,-0.015
4998,-0.05
4999,-0.065
5000,0.265
5001,0.25
5002,0.23
5003,0.24
5004,0.245
5005,0.285
5006,0.315
5007,0.355
5008,0.335
5009,0.3
5010,0.27
5011,0.23
5012,0.215
5013,0.225
5014,0.21
5015,0.29
5016,0.33
5017,0.335
5018,0.315
5019,0.255
5020,0.2
5021,0.135
5022,0.125
5023,0.12
5024,0.175
5025,0.215
5026,0.21
5027,0.185
5028,0.175
5029,0.17
5030,0.065
5031,0.035
5032,0.025
5033,0.005
5034,0.04
5035,0.085
5036,0.105
5037,0.13
5038,0.11
5039,0.065
5040,0.035
5041,0
5042,-0.045
5043,-0.01
5044,0.03
5045,0.05
5046,0.025
5047,0.055
5048,0.025
5049,0.025
5050,-0.025
5051,-0.07
5052,-0.065
5053,-0.03
5054,-0.045
5055,0.005
5056,0.03
5057,0.055
5058,0.025
5059,0
5060,-0.015
5061,-0.015
5062,-0.055
5063,-0.04
5064,-0.035
5065,0.03
5066,0.055
5067,0.055
5068,0.045
5069,0.02
5070,-0.04
5071,-0.08
5072,-0.09
5073,-0.075
5074,-0.03
5075,0.04
5076,0.06
5077,0.08
5078,0.075
5079,0.005
5080,-0.05
5081,-0.07
5082,-0.055
5083,-0.055
5084,0
5085,0.03
5086,0.035
5087,0.065
5088,0.06
5089,0.01
5090,-0.035
5091,-0.095
5092,-0.06
5093,-0.03
5094,0
5095,0.06
5096,0.065
5097,0.065
5098,0.045
5099,0.02
5100,-0.04
5101,-0.05
5102,-0.05
5103,0.005
5104,0.015
5105,0.06
5106,0.075
5107,0.085
5108,0.05
5109,-0.03
5110,-0.045
5111,-0.045
5112,-0.05
5113,-0.05
5114,0.01
5115,0.045
5116,0.07
5117,0.085
5118,0.045
5119,0
5120,-0.03
5121,-0.045
5122,-0.06
5123,-0.055
5124,-0.025
5125,0.015
5126,0.04
5127,0.065
5128,0.04
5129,-0.02
5130,-0.075
5131,-0.085
5132,-0.075
5133,-0.04
5134,0
5135,0.025
5136,0.025
5137,0.035
5138,0.04
5139,-0.02
5140,-0.08
5141,-0.065
5142,-0.06
5143,-0.03
5144,-0.005
5145,0.045
5146,0.095
5147,0.06
5148,0.045
5149,0.015
5150,-0.025
5151,-0.03
5152,0.01
5153,-0.04
5154,0.02
5155,0.04
5156,0.065
5157,0.035
5158,0.045
5159,0.045
5160,0.035
5161,0
5162,-0.025
5163,0.01
5164,0.04
5165,0.09
5166,0.1
5167,0.095
5168,0.04
5169,0.01
5170,0.02
5171,0
5172,0.025
5173,0.075
5174,0.085
5175,0.095
5176,0.115
5177,0.085
5178,0.045
5179,-0.01
5180,-0.04
5181,-0.08
5182,-0.075
5183,-0.03
5184,-0.01
5185,0.01
5186,0
5187,0.01
5188,0
5189,-0.015
5190,-0.07
5191,-0.085
5192,-0.045
5193,-0.045
5194,-0.02
5195,-0.01
5196,0.04
5197,0.04
5198,-0.005
5199,-0.08
5200,-0.1
5201,-0.075
5202,-0.05
5203,-0.045
5204,-0.005
5205,0.015
5206,0.02
5207,0.01
5208,0.01
5209,-0.05
5210,-0.115
5211,-0.105
5212,-0.09
5213,-0.05
5214,-0.005
5215,0.02
5216,0
5217,0.005
5218,-0.03
5219,-0.09
5220,-0.115
5221,-0.095
5222,-0.09
5223,-0.07
5224,-0.04
5225,-0.025
5226,-0.01
5227,-0.04
5228,-0.09
5229,-0.15
5230,-0.095
5231,-0.095
5232,-0.015
5233,0.065
5234,0.195
5235,0.26
5236,0.37
5237,0.435
5238,0.53
5239,0.575
5240,0.7
5241,0.75
5242,0.79
5243,0.75
5244,0.745
5245,0.695
5246,0.585
5247,0.45
5248,0.315
5249,0.13
5250,-0.04
5251,-0.14
5252,-0.15
5253,-0.13
5254,-0.1
5255,-0.06
5256,-0.03
5257,-0.015
5258,-0.01
5259,-0.04
5260,-0.05
5261,-0.075
5262,-0.04
5263,-0.02
5264,0.005
5265,0.04
5266,0.05
5267,0.025
5268,-0.005
5269,-0.065
5270,-0.045
5271,-0.04
5272,-0.05
5273,0.015
5274,0.09
5275,0.06
5276,0.035
5277,0.03
5278,0.01
5279,-0.055
5280,-0.05
5281,-0.045
5282,-0.01
5283,0.045
5284,0.075
5285,0.1
5286,0.095
5287,0.035
5288,-0.01
5289,0.005
5290,-0.015
5291,-0.035
5292,0.005
5293,0.02
5294,0.055
5295,0.11
5296,0.07
5297,0.045
5298,0
5299,-0.035
5300,-0.03
5301,-0.03
5302,0.05
5303,0.075
5304,0.075
5305,0.08
5306,0.1
5307,0.095
5308,0.045
5309,0.005
5310,-0.01
5311,0.015
5312,0.055
5313,0.1
5314,0.12
5315,0.135
5316,0.065
5317,0.095
5318,0.085
5319,0.055
5320,0.04
5321,0.08
5322,0.09
5323,0.145
5324,0.145
5325,0.19
5326,0.175
5327,0.15
5328,0.09
5329,0.1
5330,0.075
5331,0.095
5332,0.14
5333,0.185
5334,0.205
5335,0.245
5336,0.225
5337,0.205
5338,0.185
5339,0.14
5340,0.165
5341,0.18
5342,0.19
5343,0.26
5344,0.27
5345,0.31
5346,0.295
5347,0.27
5348,0.215
5349,0.21
5350,0.175
5351,0.195
5352,0.215
5353,0.255
5354,0.27
5355,0.315
5356,0.335
5357,0.28
5358,0.225
5359,0.2
5360,0.195
5361,0.19
5362,0.225
5363,0.255
5364,0.28
5365,0.26
5366,0.2
5367,0.165
5368,0.13
5369,0.085
5370,0.08
5371,0.09
5372,0.1
5373,0.115
5374,0.135
5375,0.16
5376,0.12
5377,0.065
5378,0.015
5379,-0.03
5380,-0.035
5381,-0.01
5382,0.02
5383,0.08
5384,0.125
5385,0.085
5386,0.04
5387,0.03
5388,-0.015
5389,-0.06
5390,-0.035
5391,-0.06
5392,-0.025
5393,0.04
5394,0.065
5395,0.02
5396,0.045
5397,0.005
5398,-0.05
5399,-0.07
5400,-0.07
5401,-0.04
5402,-0.03
5403,0.015
5404,0.015
5405,0.035
5406,0.025
5407,-0.02
5408,-0.045
5409,-0.075
5410,-0.09
5411,-0.04
5412,-0.03
5413,-0.005
5414,0.06
5415,0.02
5416,0.035
5417,0.01
5418,-0.035
5419,-0.065
5420,-0.07
5421,-0.045
5422,-0.01
5423,0.075
5424,0.065
5425,0.05
5426,0.04
5427,0.04
5428,-0.055
5429,-0.08
5430,-0.06
5431,-0.02
5432,-0.04
5433,0.02
5434,0.065
5435,0.03
5436,0.035
5437,-0.01
5438,-0.035
5439,-0.02
5440,-0.075
5441,-0.04
5442,0.015
5443,0.025
5444,0.04
5445,0.045
5446,0.025
5447,0.005
5448,-0.035
5449,-0.06
5450,-0.06
5451,-0.035
5452,0.02
5453,0.035
5454,0.055
5455,0.09
5456,0.045
5457,0.025
5458,-0.03
5459,-0.05
5460,-0.05
5461,-0.035
5462,-0.005
5463,0.035
5464,0.055
5465,0
5466,0
5467,-0.005
5468,-0.03
5469,-0.025
5470,-0.04
5471,-0.015
5472,0.005
5473,0.045
5474,0.025
5475,0.03
5476,0.01
5477,-0.05
5478,-0.075
5479,-0.095
5480,-0.07
5481,-0.04
5482,-0.015
5483,0.015
5484,0.06
5485,0.04
5486,0.01
5487,-0.055
5488,-0.08
5489,-0.06
5490,-0.075
5491,-0.035
5492,-0.005
5493,0.005
5494,0.045
5495,0.05
5496,0.035
5497,0.005
5498,-0.035
5499,-0.05
5500,-0.065
5501,-0.05
5502,0.01
5503,0.055
5504,0.06
5505,0.045
5506,-0.015
5507,-0.055
5508,-0.015
5509,-0.07
5510,-0.04
5511,0.02
5512,0.075
5513,0.085
5514,0.075
5515,0.085
5516,0.085
5517,0
5518,-0.035
5519,0
5520,0
5521,-0.02
5522,0.055
5523,0.095
5524,0.105
5525,0.08
5526,0.04
5527,0
5528,-0.04
5529,-0.06
5530,-0.05
5531,-0.03
5532,-0.01
5533,0.025
5534,0.02
5535,0.02
5536,-0.025
5537,-0.1
5538,-0.09
5539,-0.085
5540,-0.065
5541,-0.06
5542,-0.025
5543,0.01
5544,-0.01
5545,-0.005
5546,-0.03
5547,-0.1
5548,-0.145
5549,-0.105
5550,-0.085
5551,-0.085
5552,-0.025
5553,0.02
5554,0.015
5555,0.005
5556,-0.04
5557,-0.095
5558,-0.055
5559,-0.09
5560,-0.09
5561,-0.09
5562,0
5563,0.06
5564,0.03
5565,-0.01
5566,-0.035
5567,-0.085
5568,-0.13
5569,-0.13
5570,-0.085
5571,-0.06
5572,-0.02
5573,0.01
5574,-0.01
5575,-0.045
5576,-0.11
5577,-0.14
5578,-0.135
5579,-0.12
5580,-0.095
5581,-0.06
5582,0.01
5583,0.15
5584,0.195
5585,0.23
5586,0.22
5587,0.27
5588,0.39
5589,0.45
5590,0.625
5591,0.79
5592,0.8
5593,0.83
5594,0.775
5595,0.655
5596,0.505
5597,0.38
5598,0.255
5599,0.155
5600,0.045
5601,-0.02
5602,-0.065
5603,-0.075
5604,-0.06
5605,-0.075
5606,-0.1
5607,-0.1
5608,-0.085
5609,-0.075
5610,-0.005
5611,-0.005
5612,0.02
5613,0.06
5614,0.085
5615,0.01
5616,-0.02
5617,-0.045
5618,-0.07
5619,-0.075
5620,-0.06
5621,-0.025
5622,0.04
5623,0.07
5624,0.05
5625,0.02
5626,-0.02
5627,-0.05
5628,-0.07
5629,-0.055
5630,-0.025
5631,0.025
5632,0.035
5633,0.06
5634,0.05
5635,0.02
5636,-0.02
5637,-0.04
5638,-0.055
5639,-0.045
5640,-0.005
5641,0.055
5642,0.065
5643,0.055
5644,0.095
5645,0.065
5646,0.005
5647,-0.05
5648,-0.075
5649,-0.03
5650,-0.005
5651,0.085
5652,0.085
5653,0.095
5654,0.095
5655,0.08
5656,0.04
5657,0.015
5658,-0.025
5659,-0.015
5660,0.05
5661,0.085
5662,0.09
5663,0.1
5664,0.11
5665,0.105
5666,0.055
5667,0
5668,0.005
5669,0.035
5670,0.075
5671,0.095
5672,0.155
5673,0.135
5674,0.145
5675,0.14
5676,0.08
5677,0.085
5678,0.06
5679,0.055
5680,0.125
5681,0.17
5682,0.195
5683,0.275
5684,0.24
5685,0.17
5686,0.135
5687,0.15
5688,0.14
5689,0.155
5690,0.2
5691,0.255
5692,0.29
5693,0.29
5694,0.265
5695,0.265
5696,0.195
5697,0.165
5698,0.18
5699,0.235
5700,0.24
5701,0.285
5702,0.28
5703,0.3
5704,0.325
5705,0.265
5706,0.225
5707,0.18
5708,0.195
5709,0.2
5710,0.23
5711,0.26
5712,0.28
5713,0.285
5714,0.22
5715,0.145
5716,0.13
5717,0.135
5718,0.12
5719,0.125
5720,0.16
5721,0.155
5722,0.175
5723,0.18
5724,0.105
5725,0.075
5726,0.045
5727,0.045
5728,0.02
5729,0.03
5730,0.05
5731,0.095
5732,0.085
5733,0.03
5734,-0.005
5735,-0.02
5736,-0.06
5737,-0.05
5738,-0.05
5739,-0.045
5740,0
5741,0.025
5742,0.04
5743,0.05
5744,0.015
5745,-0.045
5746,-0.035
5747,-0.075
5748,-0.075
5749,-0.065
5750,0
5751,0.005
5752,0.055
5753,0.04
5754,0.01
5755,-0.02
5756,-0.045
5757,-0.085
5758,-0.1
5759,-0.03
5760,0.005
5761,0
5762,0.02
5763,0.035
5764,-0.005
5765,-0.04
5766,-0.055
5767,-0.09
5768,-0.075
5769,-0.04
5770,0.02
5771,0.085
5772,0.05
5773,0.03
5774,0.02
5775,-0.025
5776,-0.08
5777,-0.075
5778,-0.07
5779,-0.055
5780,-0.055
5781,-0.005
5782,0.045
5783,0.05
5784,0.005
5785,-0.05
5786,-0.065
5787,-0.07
5788,-0.045
5789,-0.03
5790,0.005
5791,0.04
5792,0.05
5793,0.075
5794,0.055
5795,-0.035
5796,-0.07
5797,-0.055
5798,-0.055
5799,-0.015
5800,0.015
5801,0.02
5802,0.04
5803,0.04
5804,0.06
5805,-0.02
5806,-0.065
5807,-0.055
5808,-0.035
5809,-0.045
5810,-0.03
5811,0.03
5812,0.05
5813,0.045
5814,-0.025
5815,-0.05
5816,-0.065
5817,-0.065
5818,-0.05
5819,-0.045
5820,0.02
5821,0.05
5822,0.065
5823,0.025
5824,0.01
5825,-0.05
5826,-0.07
5827,-0.09
5828,-0.07
5829,-0.025
5830,0.03
5831,0.055
5832,0.05
5833,0.015
5834,0.015
5835,-0.045
5836,-0.065
5837,-0.05
5838,-0.1
5839,-0.025
5840,0
5841,-0.01
5842,0.01
5843,0.03
5844,0.005
5845,-0.055
5846,-0.04
5847,-0.05
5848,-0.02
5849,0.005
5850,0.02
5851,0.03
5852,0.06
5853,0.05
5854,0.015
5855,-0.035
5856,-0.025
5857,-0.02
5858,-0.025
5859,-0.02
5860,0.04
5861,0.065
5862,0.04
5863,0.04
5864,0.045
5865,0.01
5866,-0.045
5867,-0.075
5868,-0.01
5869,0.03
5870,0.07
5871,0.085
5872,0.125
5873,0.075
5874,0.06
5875,0
5876,-0.025
5877,0
5878,0.01
5879,0.04
5880,0.065
5881,0.1
5882,0.085
5883,0.035
5884,-0.025
5885,-0.04
5886,-0.05
5887,-0.08
5888,-0.06
5889,-0.005
5890,0.015
5891,0.005
5892,0.04
5893,0.035
5894,0.005
5895,-0.06
5896,-0.08
5897,-0.09
5898,-0.035
5899,0
5900,0.01
5901,-0.005
5902,0.005
5903,0
5904,-0.065
5905,-0.1
5906,-0.1
5907,-0.12
5908,-0.065
5909,0
5910,0.005
5911,0.01
5912,0.025
5913,0.005
5914,-0.06
5915,-0.115
5916,-0.135
5917,-0.09
5918,-0.04
5919,-0.02
5920,0.02
5921,0.01
5922,0.005
5923,-0.01
5924,-0.065
5925,-0.11
5926,-0.11
5927,-0.105
5928,-0.1
5929,-0.05
5930,0.01
5931,0.01
5932,-0.015
5933,-0.105
5934,-0.13
5935,-0.1
5936,-0.045
5937,0.045
5938,0.115
5939,0.215
5940,0.305
5941,0.415
5942,0.51
5943,0.59
5944,0.665
5945,0.755
5946,0.77
5947,0.8
5948,0.765
5949,0.735
5950,0.63
5951,0.55
5952,0.4
5953,0.245
5954,0.06
5955,-0.09
5956,-0.16
5957,-0.165
5958,-0.13
5959,-0.07
5960,-0.02
5961,0.01
5962,0.015
5963,0.02
5964,-0.015
5965,-0.01
5966,-0.045
5967,-0.045
5968,-0.035
5969,0.02
5970,0.075
5971,0.065
5972,0.06
5973,0.035
5974,-0.05
5975,-0.08
5976,-0.06
5977,-0.05
5978,-0.035
5979,0.025
5980,0.04
5981,0.04
5982,0.02
5983,0.02
5984,-0.05
5985,-0.025
5986,-0.035
5987,-0.015
5988,-0.01
5989,0.055
5990,0.055
5991,0.06
5992,0.065
5993,0.035
5994,-0.04
5995,-0.01
5996,0
5997,0.04
5998,0.025
5999,0.04
6000,0.075
6001,0.095
6002,0.08
6003,0.04
6004,-0.02
6005,-0.03
6006,-0.035
6007,-0.015
6008,0.03
6009,0.095
6010,0.09
6011,0.105
6012,0.11
6013,0.07
6014,0.05
6015,0.06
6016,0
6017,0.005
6018,0.07
6019,0.11
6020,0.11
6021,0.12
6022,0.09
6023,0.07
6024,0.035
6025,0.08
6026,0.065
6027,0.085
6028,0.135
6029,0.19
6030,0.19
6031,0.2
6032,0.135
6033,0.125
6034,0.13
6035,0.14
6036,0.17
6037,0.195
6038,0.165
6039,0.235
6040,0.28
6041,0.285
6042,0.25
6043,0.22
6044,0.21
6045,0.2
6046,0.18
6047,0.205
6048,0.26
6049,0.27
6050,0.32
6051,0.355
6052,0.345
6053,0.29
6054,0.24
6055,0.23
6056,0.205
6057,0.3
6058,0.32
6059,0.33
6060,0.32
6061,0.345
6062,0.325
6063,0.265
6064,0.19
6065,0.19
6066,0.22
6067,0.205
6068,0.255
6069,0.28
6070,0.27
6071,0.265
6072,0.22
6073,0.17
6074,0.125
6075,0.085
6076,0.11
6077,0.11
6078,0.13
6079,0.17
6080,0.165
6081,0.175
6082,0.115
6083,0.035
6084,0.025
6085,-0.025
6086,0.015
6087,0.035
6088,0.09
6089,0.075
6090,0.065
6091,0.06
6092,0.055
6093,0.01
6094,-0.04
6095,-0.04
6096,-0.05
6097,-0.04
6098,0.03
6099,0.075
6100,0.005
6101,-0.01
6102,0.055
6103,0.02
6104,-0.03
6105,-0.045
6106,-0.025
6107,-0.015
6108,0.025
6109,0.065
6110,0.055
6111,0.03
6112,0.045
6113,-0.005
6114,-0.06
6115,-0.06
6116,-0.03
6117,-0.02
6118,0.015
6119,0.03
6120,0.055
6121,0.055
6122,0.02
6123,-0.015
6124,-0.06
6125,-0.045
6126,0.01
6127,0.02
6128,0.01
6129,0.025
6130,0.06
6131,0.055
6132,0
6133,-0.025
6134,-0.05
6135,-0.045
6136,-0.015
6137,0
6138,0.04
6139,0.075
6140,0.07
6141,0.03
6142,0.005
6143,0.01
6144,-0.025
6145,-0.05
6146,-0.015
6147,0.005
6148,0.06
6149,0.095
6150,0.08
6151,0.085
6152,0.005
6153,-0.035
6154,-0.055
6155,-0.05
6156,0.01
6157,0.035
6158,0.085
6159,0.085
6160,0.055
6161,0.035
6162,0.04
6163,-0.02
6164,-0.065
6165,-0.03
6166,-0.02
6167,0.005
6168,0.045
6169,0.085
6170,0.07
6171,0.05
6172,-0.01
6173,-0.055
6174,-0.06
6175,-0.055
6176,-0.02
6177,0
6178,0.04
6179,0.05
6180,0.08
6181,0.025
6182,-0.025
6183,-0.055
6184,-0.065
6185,-0.105
6186,-0.095
6187,0.02
6188,0.08
6189,0.09
6190,0.08
6191,0.05
6192,-0.005
6193,-0.05
6194,-0.04
6195,-0.02
6196,-0.035
6197,0.01
6198,0.045
6199,0.045
6200,0.07
6201,0.03
6202,-0.03
6203,-0.055
6204,-0.045
6205,-0.04
6206,-0.06
6207,-0.02
6208,0.035
6209,0.07
6210,0.07
6211,0.035
6212,-0.025
6213,-0.04
6214,-0.045
6215,-0.055
6216,-0.02
6217,0.015
6218,0.055
6219,0.075
6220,0.055
6221,0.045
6222,0.01
6223,-0.02
6224,-0.03
6225,-0.05
6226,-0.015
6227,0.01
6228,0.06
6229,0.125
6230,0.12
6231,0.045
6232,0
6233,-0.005
6234,0
6235,0.035
6236,0.035
6237,0.065
6238,0.12
6239,0.12
6240,0.11
6241,0.1
6242,0.06
6243,0.045
6244,0.01
6245,0.005
6246,0.035
6247,0.075
6248,0.075
6249,0.055
6250,0.07
6251,0.035
6252,-0.025
6253,-0.065
6254,-0.06
6255,-0.06
6256,-0.035
6257,0.01
6258,0.055
6259,0.075
6260,0.02
6261,-0.01
6262,-0.045
6263,-0.065
6264,-0.075
6265,-0.02
6266,-0.025
6267,0.015
6268,0.025
6269,0.055
6270,0.015
6271,-0.025
6272,-0.065
6273,-0.05
6274,-0.05
6275,-0.035
6276,-0.025
6277,0.01
6278,0.045
6279,0.045
6280,0.01
6281,-0.015
6282,-0.05
6283,-0.06
6284,-0.04
6285,-0.09
6286,-0.045
6287,-0.015
6288,0.02
6289,0.01
6290,0.005
6291,-0.005
6292,-0.075
6293,-0.075
6294,-0.105
6295,-0.07
6296,-0.03
6297,-0.035
6298,-0.005
6299,-0.005
6300,-0.05
6301,-0.05
6302,-0.04
6303,0
6304,0.07
6305,0.145
6306,0.25
6307,0.39
6308,0.465
6309,0.62
6310,0.74
6311,0.845
6312,0.875
6313,0.855
6314,0.81
6315,0.785
6316,0.735
6317,0.64
6318,0.51
6319,0.41
6320,0.205
6321,0.045
6322,-0.115
6323,-0.155
6324,-0.15
6325,-0.095
6326,-0.035
6327,0.03
6328,0.08
6329,0.095
6330,0.05
6331,0.035
6332,-0.02
6333,-0.05
6334,-0.015
6335,-0.02
6336,0.015
6337,0.07
6338,0.08
6339,0.07
6340,0.045
6341,0.01
6342,-0.04
6343,-0.05
6344,-0.025
6345,0.005
6346,0.01
6347,0.035
6348,0.075
6349,0.1
6350,0.085
6351,0.045
6352,-0.025
6353,-0.055
6354,-0.03
6355,0.01
6356,0.08
6357,0.11
6358,0.105
6359,0.125
6360,0.115
6361,0.08
6362,0.01
6363,-0.015
6364,0.01
6365,0.065
6366,0.07
6367,0.075
6368,0.06
6369,0.105
6370,0.115
6371,0.075
6372,0.005
6373,0.015
6374,0.025
6375,0.04
6376,0.095
6377,0.115
6378,0.135
6379,0.085
6380,0.12
6381,0.08
6382,0.07
6383,0.08
6384,0.06
6385,0.06
6386,0.11
6387,0.15
6388,0.175
6389,0.155
6390,0.165
6391,0.12
6392,0.12
6393,0.095
6394,0.095
6395,0.15
6396,0.19
6397,0.21
6398,0.245
6399,0.22
6400,0.185
6401,0.155
6402,0.175
6403,0.155
6404,0.13
6405,0.17
6406,0.27
6407,0.295
6408,0.325
6409,0.32
6410,0.27
6411,0.24
6412,0.205
6413,0.21
6414,0.255
6415,0.27
6416,0.34
6417,0.34
6418,0.35
6419,0.355
6420,0.31
6421,0.25
6422,0.23
6423,0.22
6424,0.275
6425,0.28
6426,0.315
6427,0.365
6428,0.4
6429,0.36
6430,0.325
6431,0.29
6432,0.225
6433,0.195
6434,0.22
6435,0.26
6436,0.28
6437,0.305
6438,0.245
6439,0.24
6440,0.23
6441,0.16
6442,0.14
6443,0.12
6444,0.125
6445,0.13
6446,0.185
6447,0.19
6448,0.155
6449,0.14
6450,0.1
6451,0.08
6452,0.055
6453,0.03
6454,0.045
6455,0.055
6456,0.05
6457,0.125
6458,0.11
6459,0.085
6460,0.075
6461,0.045
6462,0.01
6463,0.005
6464,0
6465,0
6466,0.055
6467,0.105
6468,0.075
6469,0.03
6470,0.025
6471,0.015
6472,-0.05
6473,-0.01
6474,0.02
6475,0.03
6476,0.055
6477,0.07
6478,0.08
6479,0.075
6480,0.02
6481,-0.005
6482,0
6483,0.005
6484,0.01
6485,0.02
6486,0.07
6487,0.1
6488,0.105
6489,0.07
6490,0.015
6491,-0.03
6492,-0.02
6493,0.01
6494,0.01
6495,0.065
6496,0.115
6497,0.095
6498,0.075
6499,0.06
6500,0.035
6501,-0.015
6502,-0.01
6503,-0.01
6504,0.005
6505,0.05
6506,0.105
6507,0.09
6508,0.1
6509,0.05
6510,0.02
6511,0
6512,0.04
6513,0.025
6514,0.04
6515,0.085
6516,0.075
6517,0.1
6518,0.1
6519,0.04
6520,0.02
6521,0.015
6522,0
6523,0.005
6524,0.05
6525,0.12
6526,0.12
6527,0.085
6528,0.065
6529,0.055
6530,0.01
6531,-0.02
6532,-0.02
6533,-0.03
6534,0.025
6535,0.045
6536,0.09
6537,0.105
6538,0.075
6539,0.065
6540,0.005
6541,-0.035
6542,-0.035
6543,-0.005
6544,0.03
6545,0.065
6546,0.095
6547,0.07
6548,0.075
6549,0.07
6550,0.02
6551,-0.04
6552,-0.045
6553,-0.025
6554,-0.005
6555,0.05
6556,0.11
6557,0.105
6558,0.08
6559,0.08
6560,-0.015
6561,-0.04
6562,-0.055
6563,-0.04
6564,0.005
6565,0.055
6566,0.06
6567,0.07
6568,0.075
6569,0.04
6570,-0.025
6571,-0.03
6572,0.01
6573,-0.02
6574,-0.025
6575,0.045
6576,0.055
6577,0.05
6578,0.03
6579,0.02
6580,-0.02
6581,0.02
6582,0.005
6583,-0.01
6584,-0.01
6585,0.065
6586,0.07
6587,0.08
6588,0.075
6589,0.03
6590,-0.005
6591,-0.035
6592,-0.04
6593,-0.02
6594,0.005
6595,0.075
6596,0.095
6597,0.12
6598,0.085
6599,0.025
6600,-0.015
6601,0.015
6602,-0.01
6603,-0.005
6604,0.03
6605,0.09
6606,0.11
6607,0.11
6608,0.09
6609,0.07
6610,0.015
6611,-0.035
6612,-0.005
6613,0.02
6614,0.075
6615,0.14
6616,0.15
6617,0.145
6618,0.105
6619,0.07
6620,0.04
6621,0.025
6622,0.05
6623,0.09
6624,0.095
6625,0.12
6626,0.15
6627,0.125
6628,0.07
6629,0.04
6630,0.015
6631,-0.04
6632,-0.02
6633,-0.01
6634,0.01
6635,0.05
6636,0.07
6637,0.1
6638,0.085
6639,0.02
6640,-0.025
6641,-0.035
6642,-0.055
6643,-0.055
6644,-0.02
6645,0.05
6646,0.075
6647,0.055
6648,0.035
6649,0.01
6650,-0.015
6651,-0.05
6652,-0.06
6653,-0.03
6654,0.005
6655,0.045
6656,0.055
6657,0.01
6658,0.02
6659,-0.01
6660,-0.04
6661,-0.055
6662,-0.05
6663,-0.02
6664,-0.005
6665,0.095
6666,0.095
6667,0.055
6668,0.025
6669,-0.015
6670,-0.025
6671,-0.06
6672,-0.075
6673,-0.07
6674,-0.02
6675,0.04
6676,0.085
6677,0.03
6678,-0.005
6679,-0.06
6680,-0.065
6681,-0.08
6682,-0.055
6683,0.02
6684,0.125
6685,0.245
6686,0.305
6687,0.38
6688,0.43
6689,0.495
6690,0.56
6691,0.68
6692,0.77
6693,0.825
6694,0.895
6695,0.855
6696,0.8
6697,0.665
6698,0.48
6699,0.33
6700,0.215
6701,0.095
6702,-0.01
6703,-0.085
6704,-0.05
6705,-0.04
6706,0.03
6707,-0.025
6708,-0.01
6709,-0.035
6710,0.005
6711,0
6712,0.015
6713,0.04
6714,0.075
6715,0.11
6716,0.105
6717,0.095
6718,0.075
6719,0.03
6720,-0.01
6721,-0.05
6722,0.01
6723,0.035
6724,0.07
6725,0.07
6726,0.13
6727,0.125
6728,0.08
6729,0.04
6730,0.01
6731,0.02
6732,0.035
6733,0.03
6734,0.09
6735,0.13
6736,0.125
6737,0.11
6738,0.105
6739,0.065
6740,0.025
6741,0.02
6742,0.02
6743,0.04
6744,0.1
6745,0.165
6746,0.165
6747,0.105
6748,0.09
6749,0.015
6750,0.07
6751,0.04
6752,0.065
6753,0.085
6754,0.125
6755,0.18
6756,0.15
6757,0.14
6758,0.115
6759,0.075
6760,0.05
6761,0.065
6762,0.07
6763,0.11
6764,0.18
6765,0.205
6766,0.215
6767,0.155
6768,0.125
6769,0.135
6770,0.13
6771,0.11
6772,0.145
6773,0.165
6774,0.25
6775,0.24
6776,0.21
6777,0.21
6778,0.17
6779,0.155
6780,0.14
6781,0.14
6782,0.19
6783,0.2
6784,0.255
6785,0.3
6786,0.335
6787,0.29
6788,0.245
6789,0.22
6790,0.25
6791,0.225
6792,0.225
6793,0.265
6794,0.33
6795,0.385
6796,0.4
6797,0.355
6798,0.29
6799,0.26
6800,0.265
6801,0.285
6802,0.29
6803,0.32
6804,0.37
6805,0.4
6806,0.36
6807,0.35
6808,0.315
6809,0.275
6810,0.25
6811,0.275
6812,0.28
6813,0.315
6814,0.34
6815,0.355
6816,0.34
6817,0.28
6818,0.23
6819,0.21
6820,0.165
6821,0.135
6822,0.16
6823,0.24
6824,0.245
6825,0.25
6826,0.23
6827,0.135
6828,0.115
6829,0.075
6830,0.07
6831,0.08
6832,0.09
6833,0.165
6834,0.135
6835,0.16
6836,0.16
6837,0.135
6838,0.08
6839,0.05
6840,0.02
6841,0.02
6842,0.06
6843,0.1
6844,0.12
6845,0.125
6846,0.09
6847,0.07
6848,0.02
6849,-0.01
6850,-0.02
6851,0.045
6852,0.08
6853,0.075
6854,0.09
6855,0.125
6856,0.09
6857,0.08
6858,0.04
6859,0.025
6860,-0.005
6861,0.025
6862,0.05
6863,0.06
6864,0.1
6865,0.115
6866,0.08
6867,0.05
6868,0.015
6869,0.005
6870,-0.005
6871,0
6872,0.05
6873,0.08
6874,0.075
6875,0.13
6876,0.135
6877,0.09
6878,0.045
6879,0.035
6880,0.015
6881,0.02
6882,0.065
6883,0.125
6884,0.115
6885,0.105
6886,0.105
6887,0.085
6888,0.02
6889,0
6890,0.03
6891,0.015
6892,0.03
6893,0.095
6894,0.125
6895,0.145
6896,0.14
6897,0.075
6898,0.045
6899,0.03
6900,0.025
6901,0.035
6902,0.06
6903,0.115
6904,0.135
6905,0.125
6906,0.11
6907,0.08
6908,0.04
6909,0.03
6910,0.025
6911,0.015
6912,0.06
6913,0.13
6914,0.13
6915,0.13
6916,0.145
6917,0.11
6918,0.025
6919,-0.02
6920,-0.02
6921,0.015
6922,0.06
6923,0.1
6924,0.11
6925,0.14
6926,0.09
6927,0.045
6928,0.045
6929,0.015
6930,0.015
6931,0
6932,0.06
6933,0.135
6934,0.17
6935,0.12
6936,0.1
6937,0.065
6938,0.035
6939,0.01
6940,-0.015
6941,0.03
6942,0.065
6943,0.08
6944,0.11
6945,0.135
6946,0.12
6947,0.045
6948,0.025
6949,0.03
6950,0.025
6951,0.06
6952,0.09
6953,0.095
6954,0.06
6955,0.09
6956,0.07
6957,0.03
6958,-0.025
6959,0.005
6960,0
6961,0.01
6962,0.055
6963,0.115
6964,0.14
6965,0.11
6966,0.08
6967,0.06
6968,0.04
6969,0.06
6970,0.035
6971,0.035
6972,0.11
6973,0.155
6974,0.15
6975,0.125
6976,0.12
6977,0.09
6978,0.02
6979,0.06
6980,0.05
6981,0.115
6982,0.17
6983,0.14
6984,0.17
6985,0.15
6986,0.15
6987,0.115
6988,0.055
6989,0.055
6990,0.065
6991,0.1
6992,0.14
6993,0.15
6994,0.12
6995,0.13
6996,0.11
6997,0.01
6998,-0.01
6999,0.015
7000,0.03
7001,0.035
7002,0.08
7003,0.12
7004,0.09
7005,0.08
7006,0.05
7007,0.04
7008,-0.02
7009,-0.02
7010,0.005
7011,0.005
7012,0.055
7013,0.11
7014,0.12
7015,0.09
7016,0.07
7017,-0.02
7018,-0.045
7019,-0.035
7020,-0.015
7021,0
7022,0.09
7023,0.08
7024,0.115
7025,0.095
7026,0.07
7027,0.01
7028,0.01
7029,0.01
7030,0.015
7031,-0.01
7032,0.07
7033,0.125
7034,0.09
7035,0.055
7036,0.05
7037,-0.025
7038,-0.02
7039,-0.02
7040,-0.035
7041,0
7042,0.055
7043,0.085
7044,0.04
7045,0.025
7046,0.005
7047,-0.02
7048,0
7049,-0.01
7050,0.065
7051,0.175
7052,0.29
7053,0.39
7054,0.495
7055,0.57
7056,0.645
7057,0.745
7058,0.82
7059,0.82
7060,0.84
7061,0.83
7062,0.76
7063,0.7
7064,0.56
7065,0.445
7066,0.285
7067,0.1
7068,-0.035
7069,-0.09
7070,-0.075
7071,-0.025
7072,0.01
7073,0.06
7074,0.115
7075,0.105
7076,0.055
7077,0.035
7078,0.04
7079,0.025
7080,0.02
7081,0.05
7082,0.13
7083,0.13
7084,0.14
7085,0.115
7086,0.055
7087,-0.01
7088,-0.015
7089,0.025
7090,0.055
7091,0.09
7092,0.15
7093,0.17
7094,0.135
7095,0.105
7096,0.065
7097,0.025
7098,0.1
7099,0.05
7100,0.07
7101,0.115
7102,0.145
7103,0.175
7104,0.15
7105,0.125
7106,0.08
7107,0.025
7108,0.065
7109,0.055
7110,0.11
7111,0.14
7112,0.155
7113,0.165
7114,0.17
7115,0.15
7116,0.12
7117,0.115
7118,0.035
7119,0.035
7120,0.08
7121,0.13
7122,0.175
7123,0.17
7124,0.155
7125,0.155
7126,0.115
7127,0.08
7128,0.105
7129,0.14
7130,0.155
7131,0.185
7132,0.2
7133,0.26
7134,0.25
7135,0.19
7136,0.17
7137,0.13
7138,0.11
7139,0.11
7140,0.16
7141,0.23
7142,0.26
7143,0.27
7144,0.285
7145,0.27
7146,0.24
7147,0.21
7148,0.19
7149,0.22
7150,0.235
7151,0.29
7152,0.335
7153,0.315
7154,0.3
7155,0.31
7156,0.265
7157,0.245
7158,0.23
7159,0.27
7160,0.31
7161,0.355
7162,0.38
7163,0.395
7164,0.385
7165,0.36
7166,0.32
7167,0.31
7168,0.285
7169,0.28
7170,0.3
7171,0.365
7172,0.4
7173,0.415
7174,0.42
7175,0.365
7176,0.32
7177,0.305
7178,0.305
7179,0.285
7180,0.28
7181,0.32
7182,0.36
7183,0.32
7184,0.285
7185,0.295
7186,0.245
7187,0.175
7188,0.15
7189,0.175
7190,0.155
7191,0.195
7192,0.225
7193,0.22
7194,0.185
7195,0.135
7196,0.075
7197,0.09
7198,0.06
7199,0.085
7200,0.095
7201,0.13
7202,0.16
7203,0.16
7204,0.16
7205,0.095
7206,0.07
7207,0.065
7208,0.035
7209,0.075
7210,0.075
7211,0.08
7212,0.115
7213,0.115
7214,0.08
7215,0.065
7216,0.04
7217,0.02
7218,0.005
7219,0.035
7220,0.08
7221,0.105
7222,0.1
7223,0.135
7224,0.095
7225,0.09
7226,0.04
7227,0.01
7228,-0.005
7229,0.02
7230,0.025
7231,0.06
7232,0.095
7233,0.135
7234,0.115
7235,0.06
7236,0.055
7237,0.025
7238,0.04
7239,0.095
7240,0.095
7241,0.12
7242,0.155
7243,0.12
7244,0.08
7245,0.06
7246,0.065
7247,0.04
7248,0.03
7249,0.055
7250,0.085
7251,0.13
7252,0.17
7253,0.17
7254,0.145
7255,0.105
7256,0.06
7257,0.035
7258,-0.015
7259,0.04
7260,0.085
7261,0.125
7262,0.125
7263,0.14
7264,0.14
7265,0.09
7266,0.05
7267,0.065
7268,0.02
7269,0.11
7270,0.12
7271,0.145
7272,0.185
7273,0.16
7274,0.115
7275,0.115
7276,0.045
7277,0.015
7278,0.05
7279,0.055
7280,0.11
7281,0.135
7282,0.14
7283,0.13
7284,0.12
7285,0.09
7286,0.065
7287,0.05
7288,0.025
7289,0.045
7290,0.105
7291,0.125
7292,0.135
7293,0.155
7294,0.105
7295,0.08
7296,0.055
7297,0.03
7298,0.025
7299,0.045
7300,0.08
7301,0.155
7302,0.2
7303,0.145
7304,0.085
7305,0.07
7306,0.04
7307,0.035
7308,0.03
7309,0.055
7310,0.15
7311,0.15
7312,0.15
7313,0.145
7314,0.1
7315,0.045
7316,0
7317,0.005
7318,0.015
7319,0.035
7320,0.115
7321,0.075
7322,0.165
7323,0.12
7324,0.09
7325,0.05
7326,0.02
7327,-0.01
7328,0.03
7329,0.05
7330,0.095
7331,0.12
7332,0.13
7333,0.115
7334,0.09
7335,0.04
7336,0.005
7337,0.005
7338,0.055
7339,0.105
7340,0.11
7341,0.125
7342,0.155
7343,0.14
7344,0.11
7345,0.08
7346,0.07
7347,0.06
7348,0.08
7349,0.08
7350,0.115
7351,0.15
7352,0.17
7353,0.14
7354,0.14
7355,0.095
7356,0.03
7357,0.035
7358,0.055
7359,0.12
7360,0.18
7361,0.19
7362,0.18
7363,0.18
7364,0.095
7365,0.045
7366,0.06
7367,0.05
7368,0.05
7369,0.09
7370,0.135
7371,0.15
7372,0.17
7373,0.14
7374,0.11
7375,0.035
7376,0.015
7377,0.01
7378,-0.005
7379,0.04
7380,0.1
7381,0.115
7382,0.105
7383,0.085
7384,0.07
7385,0.03
7386,0.025
7387,-0.04
7388,0.02
7389,0.055
7390,0.095
7391,0.13
7392,0.125
7393,0.065
7394,0.055
7395,-0.02
7396,-0.025
7397,0
7398,0.01
7399,0.07
7400,0.085
7401,0.08
7402,0.09
7403,0.105
7404,0.025
7405,-0.01
7406,-0.01
7407,-0.005
7408,-0.03
7409,0.03
7410,0.1
7411,0.09
7412,0.1
7413,0.065
7414,0.03
7415,-0.04
7416,-0.035
7417,-0.045
7418,-0.035
7419,0.02
7420,0.05
7421,0.055
7422,0.065
7423,0.085
7424,0.15
7425,0.175
7426,0.215
7427,0.275
7428,0.34
7429,0.455
7430,0.635
7431,0.74
7432,0.845
7433,0.855
7434,0.85
7435,0.775
7436,0.7
7437,0.615
7438,0.55
7439,0.52
7440,0.41
7441,0.24
7442,0.11
7443,0.02
7444,-0.06
7445,-0.095
7446,-0.085
7447,-0.04
7448,0.025
7449,0.1
7450,0.13
7451,0.145
7452,0.135
7453,0.085
7454,0.035
7455,0.01
7456,0
7457,0
7458,0.04
7459,0.08
7460,0.095
7461,0.09
7462,0.135
7463,0.09
7464,-0.015
7465,0.015
7466,0.035
7467,0.025
7468,0.05
7469,0.085
7470,0.12
7471,0.105
7472,0.11
7473,0.09
7474,0.06
7475,0.02
7476,0.025
7477,0.04
7478,0.085
7479,0.135
7480,0.13
7481,0.17
7482,0.115
7483,0.11
7484,0.09
7485,0.04
7486,0.035
7487,0.07
7488,0.095
7489,0.17
7490,0.145
7491,0.165
7492,0.15
7493,0.12
7494,0.085
7495,0.035
7496,0.08
7497,0.105
7498,0.11
7499,0.17
7500,0.185
7501,0.19
7502,0.185
7503,0.115
7504,0.11
7505,0.08
7506,0.075
7507,0.085
7508,0.12
7509,0.21
7510,0.205
7511,0.205
7512,0.195
7513,0.16
7514,0.16
7515,0.14
7516,0.135
7517,0.165
7518,0.215
7519,0.265
7520,0.275
7521,0.25
7522,0.22
7523,0.22
7524,0.195
7525,0.185
7526,0.175
7527,0.21
7528,0.28
7529,0.335
7530,0.35
7531,0.345
7532,0.31
7533,0.29
7534,0.275
7535,0.245
7536,0.27
7537,0.285
7538,0.31
7539,0.375
7540,0.43
7541,0.41
7542,0.37
7543,0.345
7544,0.325
7545,0.295
7546,0.275
7547,0.305
7548,0.35
7549,0.41
7550,0.405
7551,0.39
7552,0.325
7553,0.29
7554,0.255
7555,0.24
7556,0.23
7557,0.235
7558,0.275
7559,0.285
7560,0.285
7561,0.295
7562,0.285
7563,0.2
7564,0.155
7565,0.145
7566,0.115
7567,0.13
7568,0.155
7569,0.18
7570,0.185
7571,0.205
7572,0.175
7573,0.115
7574,0.065
7575,0.07
7576,0.06
7577,0.055
7578,0.105
7579,0.15
7580,0.16
7581,0.16
7582,0.075
7583,0.04
7584,0.025
7585,-0.01
7586,-0.01
7587,0.05
7588,0.1
7589,0.09
7590,0.12
7591,0.11
7592,0.105
7593,0.03
7594,-0.005
7595,-0.01
7596,0.005
7597,0.03
7598,0.065
7599,0.09
7600,0.12
7601,0.15
7602,0.085
7603,0.015
7604,0.005
7605,0.025
7606,0.03
7607,0.05
7608,0.075
7609,0.1
7610,0.105
7611,0.125
7612,0.1
7613,0.045
7614,0.02
7615,0.025
7616,0.03
7617,0.06
7618,0.11
7619,0.14
7620,0.135
7621,0.145
7622,0.09
7623,0.06
7624,-0.02
7625,-0.03
7626,0
7627,0.085
7628,0.085
7629,0.11
7630,0.13
7631,0.125
7632,0.105
7633,0.07
7634,0.03
7635,-0.005
7636,0.02
7637,0.06
7638,0.105
7639,0.125
7640,0.15
7641,0.155
7642,0.095
7643,0.055
7644,0.04
7645,0.04
7646,0.025
7647,0.03
7648,0.12
7649,0.135
7650,0.145
7651,0.11
7652,0.12
7653,0.055
7654,0.02
7655,0.03
7656,0.035
7657,0.07
7658,0.12
7659,0.125
7660,0.12
7661,0.125
7662,0.09
7663,0.055
7664,0.045
7665,0.02
7666,0.015
7667,0.055
7668,0.1
7669,0.115
7670,0.125
7671,0.13
7672,0.095
7673,0.045
7674,0.025
7675,0.01
7676,0.025
7677,0.065
7678,0.09
7679,0.12
7680,0.13
7681,0.095
7682,0.095
7683,0.03
7684,0.015
7685,0.02
7686,0.055
7687,0.085
7688,0.085
7689,0.095
7690,0.115
7691,0.06
7692,0.04
7693,0.035
7694,0.015
7695,0.035
7696,0.04
7697,0.065
7698,0.12
7699,0.13
7700,0.13
7701,0.1
7702,0.075
7703,0.02
7704,0.01
7705,0.015
7706,0.035
7707,0.075
7708,0.09
7709,0.08
7710,0.085
7711,0.06
7712,0.07
7713,0.04
7714,0.005
7715,0.015
7716,0.045
7717,0.09
7718,0.15
7719,0.15
7720,0.13
7721,0.12
7722,0.09
7723,0.065
7724,0.045
7725,0.055
7726,0.06
7727,0.075
7728,0.13
7729,0.125
7730,0.125
7731,0.125
7732,0.115
7733,0.07
7734,0.07
7735,0.08
7736,0.12
7737,0.135
7738,0.17
7739,0.205
7740,0.155
7741,0.18
7742,0.125
7743,0.07
7744,0.08
7745,0.1
7746,0.09
7747,0.15
7748,0.135
7749,0.1
7750,0.105
7751,0.115
7752,0.055
7753,0.01
7754,-0.005
7755,0.03
7756,0.04
7757,0.09
7758,0.11
7759,0.12
7760,0.1
7761,0.06
7762,0.065
7763,0.06
7764,0.025
7765,0.035
7766,0.06
7767,0.07
7768,0.095
7769,0.135
7770,0.13
7771,0.07
7772,0.03
7773,-0.015
7774,0.01
7775,0
7776,0
7777,0.105
7778,0.16
7779,0.14
7780,0.12
7781,0.095
7782,0.015
7783,0.01
7784,-0.025
7785,0.005
7786,-0.005
7787,0.07
7788,0.11
7789,0.115
7790,0.11
7791,0.06
7792,-0.01
7793,-0.025
7794,-0.045
7795,-0.005
7796,0.05
7797,0.115
7798,0.115
7799,0.055
7800,0.055
7801,0.02
7802,0.05
7803,0.11
7804,0.165
7805,0.245
7806,0.335
7807,0.455
7808,0.565
7809,0.685
7810,0.805
7811,0.895
7812,0.885
7813,0.855
7814,0.785
7815,0.78
7816,0.695
7817,0.59
7818,0.545
7819,0.415
7820,0.22
7821,0.08
7822,-0.02
7823,-0.09
7824,-0.04
7825,0
7826,0.01
7827,0.065
7828,0.115
7829,0.155
7830,0.145
7831,0.13
7832,0.1
7833,0.075
7834,0.04
7835,0.07
7836,0.095
7837,0.125
7838,0.15
7839,0.17
7840,0.135
7841,0.095
7842,0.05
7843,0.04
7844,0.06
7845,0.1
7846,0.11
7847,0.14
7848,0.14
7849,0.175
7850,0.15
7851,0.12
7852,0.12
7853,0.055
7854,0.045
7855,0.06
7856,0.13
7857,0.175
7858,0.18
7859,0.15
7860,0.155
7861,0.115
7862,0.075
7863,0.115
7864,0.085
7865,0.145
7866,0.155
7867,0.15
7868,0.165
7869,0.165
7870,0.185
7871,0.135
7872,0.1
7873,0.095
7874,0.08
7875,0.125
7876,0.15
7877,0.21
7878,0.215
7879,0.195
7880,0.16
7881,0.14
7882,0.125
7883,0.115
7884,0.11
7885,0.155
7886,0.175
7887,0.255
7888,0.265
7889,0.245
7890,0.21
7891,0.175
7892,0.15
7893,0.185
7894,0.18
7895,0.16
7896,0.22
7897,0.275
7898,0.285
7899,0.28
7900,0.28
7901,0.24
7902,0.225
7903,0.22
7904,0.235
7905,0.255
7906,0.3
7907,0.34
7908,0.325
7909,0.355
7910,0.37
7911,0.325
7912,0.28
7913,0.285
7914,0.325
7915,0.31
7916,0.355
7917,0.42
7918,0.45
7919,0.44
7920,0.395
7921,0.315
7922,0.285
7923,0.31
7924,0.315
7925,0.365
7926,0.41
7927,0.435
7928,0.45
7929,0.42
7930,0.4
7931,0.335
7932,0.265
7933,0.305
7934,0.285
7935,0.295
7936,0.335
7937,0.335
7938,0.375
7939,0.33
7940,0.26
7941,0.215
7942,0.205
7943,0.185
7944,0.17
7945,0.19
7946,0.285
7947,0.235
7948,0.22
7949,0.19
7950,0.15
7951,0.135
7952,0.09
7953,0.095
7954,0.105
7955,0.125
7956,0.165
7957,0.16
7958,0.165
7959,0.135
7960,0.12
7961,0.085
7962,0.065
7963,0.035
7964,0.075
7965,0.08
7966,0.135
7967,0.15
7968,0.145
7969,0.14
7970,0.105
7971,0.06
7972,0.04
7973,0.045
7974,0.055
7975,0.09
7976,0.11
7977,0.125
7978,0.11
7979,0.115
7980,0.095
7981,0.05
7982,0.045
7983,0.035
7984,0.06
7985,0.085
7986,0.125
7987,0.13
7988,0.105
7989,0.13
7990,0.105
7991,0.04
7992,0.035
7993,0.04
7994,0.06
7995,0.105
7996,0.135
7997,0.165
7998,0.18
7999,0.155
8000,0.12
8001,0.065
8002,0.05
8003,0.055
8004,0.07
8005,0.11
8006,0.145
8007,0.16
8008,0.14
8009,0.12
8010,0.13
8011,0.085
8012,0.05
8013,0.065
8014,0.08
8015,0.12
8016,0.17
8017,0.185
8018,0.155
8019,0.145
8020,0.115
8021,0.08
8022,0.075
8023,0.07
8024,0.1
8025,0.105
8026,0.155
8027,0.175
8028,0.16
8029,0.15
8030,0.09
8031,0.06
8032,0.085
8033,0.05
8034,0.085
8035,0.135
8036,0.14
8037,0.16
8038,0.165
8039,0.14
8040,0.095
8041,0.05
8042,0.055
8043,0.085
8044,0.085
8045,0.135
8046,0.125
8047,0.17
8048,0.15
8049,0.12
8050,0.075
8051,0.065
8052,0.03
8053,0.085
8054,0.09
8055,0.135
8056,0.15
8057,0.155
8058,0.18
8059,0.125
8060,0.085
8061,0.065
8062,0.05
8063,0.035
8064,0.05
8065,0.095
8066,0.135
8067,0.15
8068,0.125
8069,0.1
8070,0.07
8071,0.085
8072,0.035
8073,0.055
8074,0.09
8075,0.13
8076,0.175
8077,0.16
8078,0.14
8079,0.13
8080,0.03
8081,0.025
8082,0.035
8083,0.04
8084,0.09
8085,0.125
8086,0.14
8087,0.165
8088,0.135
8089,0.135
8090,0.07
8091,0.04
8092,0.03
8093,0.06
8094,0.07
8095,0.125
8096,0.185
8097,0.175
8098,0.13
8099,0.135
8100,0.07
8101,0.05
8102,0.075
8103,0.09
8104,0.1
8105,0.13
8106,0.16
8107,0.17
8108,0.175
8109,0.11
8110,0.055
8111,0.04
8112,0.035
8113,0.075
8114,0.1
8115,0.175
8116,0.21
8117,0.22
8118,0.2
8119,0.165
8120,0.11
8121,0.075
8122,0.085
8123,0.11
8124,0.165
8125,0.19
8126,0.205
8127,0.195
8128,0.15
8129,0.12
8130,0.055
8131,0.05
8132,0.055
8133,0.07
8134,0.11
8135,0.145
8136,0.11
8137,0.11
8138,0.105
8139,0.095
8140,0.04
8141,0.03
8142,0.05
8143,0.055
8144,0.065
8145,0.105
8146,0.165
8147,0.155
8148,0.13
8149,0.075
8150,0.015
8151,0.005
8152,-0.01
8153,-0.005
8154,0.075
8155,0.09
8156,0.125
8157,0.135
8158,0.08
8159,0.03
8160,0.01
8161,0.035
8162,0.045
8163,0.045
8164,0.06
8165,0.135
8166,0.135
8167,0.125
8168,0.075
8169,0.065
8170,-0.005
8171,-0.02
8172,0.005
8173,0.03
8174,0.055
8175,0.07
8176,0.125
8177,0.09
8178,0.035
8179,0.025
8180,-0.025
8181,-0.02
8182,0
8183,0.06
8184,0.155
8185,0.26
8186,0.325
8187,0.41
8188,0.47
8189,0.485
8190,0.54
8191,0.725
8192,0.855
8193,0.905
8194,0.95
8195,0.925
8196,0.87
8197,0.76
8198,0.63
8199,0.46
8200,0.285
8201,0.135
8202,0.05
8203,-0.02
8204,0
8205,0.03
8206,0.08
8207,0.075
8208,0.09
8209,0.075
8210,0.01
8211,0.03
8212,0.075
8213,0.095
8214,0.13
8215,0.145
8216,0.15
8217,0.15
8218,0.12
8219,0.085
8220,0.055
8221,0.015
8222,0.06
8223,0.05
8224,0.115
8225,0.14
8226,0.14
8227,0.155
8228,0.135
8229,0.06
8230,0.075
8231,0.04
8232,0.045
8233,0.09
8234,0.145
8235,0.145
8236,0.17
8237,0.145
8238,0.13
8239,0.09
8240,0.07
8241,0.055
8242,0.095
8243,0.09
8244,0.16
8245,0.175
8246,0.185
8247,0.145
8248,0.15
8249,0.115
8250,0.09
8251,0.07
8252,0.095
8253,0.115
8254,0.155
8255,0.16
8256,0.17
8257,0.16
8258,0.16
8259,0.13
8260,0.1
8261,0.115
8262,0.12
8263,0.125
8264,0.22
8265,0.235
8266,0.205
8267,0.21
8268,0.18
8269,0.13
8270,0.105
8271,0.145
8272,0.145
8273,0.2
8274,0.245
8275,0.275
8276,0.275
8277,0.255
8278,0.24
8279,0.165
8280,0.17
8281,0.195
8282,0.23
8283,0.27
8284,0.3
8285,0.315
8286,0.335
8287,0.335
8288,0.335
8289,0.28
8290,0.245
8291,0.24
8292,0.285
8293,0.305
8294,0.335
8295,0.38
8296,0.39
8297,0.36
8298,0.355
8299,0.295
8300,0.24
8301,0.285
8302,0.325
8303,0.35
8304,0.42
8305,0.445
8306,0.425
8307,0.41
8308,0.37
8309,0.305
8310,0.275
8311,0.265
8312,0.295
8313,0.345
8314,0.375
8315,0.365
8316,0.34
8317,0.335
8318,0.29
8319,0.25
8320,0.19
8321,0.185
8322,0.175
8323,0.215
8324,0.26
8325,0.24
8326,0.25
8327,0.205
8328,0.165
8329,0.12
8330,0.125
8331,0.11
8332,0.125
8333,0.135
8334,0.16
8335,0.185
8336,0.22
8337,0.165
8338,0.065
8339,0.03
8340,0.035
8341,0.04
8342,0.06
8343,0.11
8344,0.095
8345,0.11
8346,0.13
8347,0.105
8348,0.05
8349,0.015
8350,-0.005
8351,0.01
8352,0.06
8353,0.13
8354,0.125
8355,0.1
8356,0.11
8357,0.065
8358,0.035
8359,0.025
8360,-0.02
8361,-0.025
8362,0.06
8363,0.075
8364,0.09
8365,0.105
8366,0.1
8367,0.1
8368,0.025
8369,0.03
8370,0.035
8371,0.03
8372,0.085
8373,0.1
8374,0.12
8375,0.115
8376,0.135
8377,0.1
8378,0.045
8379,0
8380,-0.01
8381,0.05
8382,0.06
8383,0.11
8384,0.13
8385,0.15
8386,0.13
8387,0.08
8388,0.04
8389,0.025
8390,0
8391,-0.005
8392,0.055
8393,0.09
8394,0.09
8395,0.15
8396,0.15
8397,0.105
8398,0.02
8399,-0.03
8400,-0.005
8401,0.025
8402,0.055
8403,0.115
8404,0.145
8405,0.155
8406,0.115
8407,0.11
8408,0.075
8409,0.02
8410,-0.015
8411,0.075
8412,0.09
8413,0.12
8414,0.145
8415,0.105
8416,0.105
8417,0.095
8418,0.05
8419,0.01
8420,0.015
8421,0.005
8422,0.07
8423,0.115
8424,0.125
8425,0.105
8426,0.075
8427,0.075
8428,0.025
8429,0.01
8430,0
8431,0.02
8432,0.06
8433,0.12
8434,0.09
8435,0.11
8436,0.1
8437,0.055
8438,0.035
8439,0.005
8440,-0.005
8441,-0.005
8442,0.085
8443,0.125
8444,0.155
8445,0.155
8446,0.115
8447,0.05
8448,0.02
8449,0.025
8450,0.005
8451,0.02
8452,0.055
8453,0.105
8454,0.13
8455,0.135
8456,0.085
8457,0.045
8458,0.01
8459,-0.005
8460,0.035
8461,0.045
8462,0.095
8463,0.135
8464,0.15
8465,0.12
8466,0.09
8467,0.08
8468,0.045
8469,0.005
8470,-0.015
8471,0.025
8472,0.085
8473,0.13
8474,0.135
8475,0.16
8476,0.125
8477,0.13
8478,0.075
8479,0.045
8480,0.065
8481,0.09
8482,0.16
8483,0.15
8484,0.16
8485,0.18
8486,0.15
8487,0.095
8488,0.07
8489,0.06
8490,0.035
8491,0.065
8492,0.13
8493,0.135
8494,0.12
8495,0.11
8496,0.075
8497,0.01
8498,-0.005
8499,-0.03
8500,-0.01
8501,0.02
8502,0.065
8503,0.085
8504,0.08
8505,0.105
8506,0.11
8507,0.06
8508,-0.015
8509,-0.015
8510,-0.02
8511,0.01
8512,0.06
8513,0.09
8514,0.105
8515,0.085
8516,0.08
8517,0.005
8518,-0.02
8519,-0.015
8520,0.025
8521,0.015
8522,0.055
8523,0.09
8524,0.09
8525,0.075
8526,0.08
8527,-0.005
8528,-0.045
8529,-0.065
8530,-0.035
8531,0.005
8532,0.05
8533,0.06
8534,0.095
8535,0.09
8536,0.055
8537,-0.01
8538,-0.03
8539,-0.04
8540,-0.03
8541,-0.015
8542,0.03
8543,0.03
8544,0.06
8545,0.06
8546,0.045
8547,0.07
8548,0.12
8549,0.175
8550,0.23
8551,0.38
8552,0.505
8553,0.63
8554,0.795
8555,0.85
8556,0.825
8557,0.795
8558,0.725
8559,0.65
8560,0.545
8561,0.475
8562,0.415
8563,0.385
8564,0.215
8565,0.08
8566,-0.04
8567,-0.1
8568,-0.09
8569,-0.135
8570,-0.08
8571,-0.02
8572,0.06
8573,0.1
8574,0.12
8575,0.115
8576,0.06
8577,0.02
8578,0.04
8579,0.01
8580,0.03
8581,0.065
8582,0.085
8583,0.16
8584,0.16
8585,0.075
8586,0.03
8587,0.02
8588,0.01
8589,0.035
8590,0.025
8591,0.075
8592,0.1
8593,0.135
8594,0.125
8595,0.085
8596,0.08
8597,0.055
8598,0.015
8599,0.065
8600,0.05
8601,0.12
8602,0.145
8603,0.155
8604,0.16
8605,0.14
8606,0.08
8607,0.045
8608,0.06
8609,0.04
8610,0.05
8611,0.085
8612,0.15
8613,0.18
8614,0.185
8615,0.15
8616,0.095
8617,0.085
8618,0.06
8619,0.055
8620,0.065
8621,0.14
8622,0.18
8623,0.185
8624,0.18
8625,0.16
8626,0.125
8627,0.105
8628,0.07
8629,0.085
8630,0.135
8631,0.175
8632,0.2
8633,0.2
8634,0.19
8635,0.21
8636,0.185
8637,0.15
8638,0.135
8639,0.125
8640,0.14
8641,0.195
8642,0.265
8643,0.29
8644,0.295
8645,0.235
8646,0.2
8647,0.19
8648,0.215
8649,0.205
8650,0.23
8651,0.315
8652,0.335
8653,0.325
8654,0.34
8655,0.33
8656,0.29
8657,0.28
8658,0.265
8659,0.3
8660,0.245
8661,0.31
8662,0.36
8663,0.39
8664,0.395
8665,0.34
8666,0.285
8667,0.265
8668,0.285
8669,0.31
8670,0.325
8671,0.36
8672,0.4
8673,0.39
8674,0.39
8675,0.365
8676,0.3
8677,0.225
8678,0.21
8679,0.23
8680,0.255
8681,0.285
8682,0.285
8683,0.285
8684,0.29
8685,0.255
8686,0.185
8687,0.16
8688,0.15
8689,0.14
8690,0.17
8691,0.19
8692,0.2
8693,0.17
8694,0.155
8695,0.125
8696,0.09
8697,0.06
8698,0.015
8699,0.055
8700,0.03
8701,0.07
8702,0.13
8703,0.115
8704,0.145
8705,0.125
8706,0.045
8707,0.03
8708,0.015
8709,0.025
8710,0.065
8711,0.09
8712,0.085
8713,0.16
8714,0.115
8715,0.065
8716,0.025
8717,-0.01
8718,-0.015
8719,0.01
8720,0.07
8721,0.09
8722,0.1
8723,0.105
8724,0.09
8725,0.055
8726,0.01
8727,0.005
8728,0.005
8729,0.055
8730,0.05
8731,0.09
8732,0.105
8733,0.125
8734,0.11
8735,0.055
8736,0.005
8737,0.005
8738,-0.005
8739,0.015
8740,0.055
8741,0.08
8742,0.1
8743,0.125
8744,0.1
8745,0.065
8746,0.045
8747,0.025
8748,0.005
8749,0.02
8750,0.07
8751,0.12
8752,0.13
8753,0.1
8754,0.1
8755,0.085
8756,0.08
8757,0.055
8758,0.03
8759,0.04
8760,0.085
8761,0.165
8762,0.18
8763,0.14
8764,0.095
8765,0.045
8766,-0.005
8767,-0.01
8768,-0.015
8769,0.045
8770,0.075
8771,0.125
8772,0.145
8773,0.12
8774,0.11
8775,0.06
8776,0.025
8777,0.01
8778,0.01
8779,0.07
8780,0.105
8781,0.095
8782,0.12
8783,0.125
8784,0.09
8785,0.055
8786,0.03
8787,0.01
8788,0
8789,0.025
8790,0.06
8791,0.095
8792,0.14
8793,0.095
8794,0.055
8795,0.015
8796,0
8797,0.02
8798,0.07
8799,0.02
8800,0.055
8801,0.09
8802,0.115
8803,0.1
8804,0.09
8805,0.05
8806,0.03
8807,0
8808,0.005
8809,0.01
8810,0.05
8811,0.105
8812,0.12
8813,0.085
8814,0.065
8815,0.035
8816,0
8817,0.005
8818,-0.03
8819,0.025
8820,0.075
8821,0.11
8822,0.115
8823,0.08
8824,0.05
8825,0.015
8826,-0.025
8827,-0.04
8828,-0.01
8829,0.065
8830,0.095
8831,0.115
8832,0.13
8833,0.105
8834,0.07
8835,0.045
8836,0.05
8837,0.03
8838,0.025
8839,0.035
8840,0.09
8841,0.095
8842,0.115
8843,0.135
8844,0.085
8845,0.05
8846,0.035
8847,0.065
8848,0.065
8849,0.09
8850,0.13
8851,0.15
8852,0.19
8853,0.165
8854,0.14
8855,0.085
8856,0.065
8857,0.08
8858,0.085
8859,0.045
8860,0.09
8861,0.17
8862,0.17
8863,0.115
8864,0.085
8865,0.03
8866,-0.015
8867,-0.02
8868,0.015
8869,0.045
8870,0.065
8871,0.075
8872,0.085
8873,0.085
8874,0.06
8875,-0.01
8876,-0.02
8877,0
8878,0.01
8879,0.055
8880,0.075
8881,0.08
8882,0.095
8883,0.08
8884,0.02
8885,-0.06
8886,-0.04
8887,-0.04
8888,-0.025
8889,0.015
8890,0.075
8891,0.115
8892,0.135
8893,0.08
8894,0.035
8895,-0.02
8896,-0.035
8897,-0.01
8898,0.01
8899,0.015
8900,0.08
8901,0.085
8902,0.085
8903,0.065
8904,0.01
8905,-0.045
8906,-0.07
8907,-0.07
8908,-0.055
8909,0.03
8910,0.08
8911,0.06
8912,0.055
8913,0.035
8914,0.005
8915,-0.015
8916,0.045
8917,0.12
8918,0.19
8919,0.3
8920,0.415
8921,0.5
8922,0.625
8923,0.7
8924,0.8
8925,0.84
8926,0.795
8927,0.775
8928,0.705
8929,0.675
8930,0.64
8931,0.525
8932,0.41
8933,0.22
8934,0.085
8935,-0.07
8936,-0.14
8937,-0.1
8938,-0.07
8939,0.01
8940,0.08
8941,0.095
8942,0.095
8943,0.125
8944,0.055
8945,0.035
8946,0.04
8947,0.03
8948,0.055
8949,0.09
8950,0.125
8951,0.15
8952,0.14
8953,0.12
8954,0.065
8955,0.035
8956,0.025
8957,0.035
8958,0.025
8959,0.095
8960,0.12
8961,0.14
8962,0.16
8963,0.11
8964,0.045
8965,0.02
8966,0.01
8967,0.03
8968,0.065
8969,0.12
8970,0.155
8971,0.15
8972,0.14
8973,0.135
8974,0.09
8975,0.08
8976,0.09
8977,0.06
8978,0.07
8979,0.125
8980,0.15
8981,0.16
8982,0.16
8983,0.13
8984,0.065
8985,0.035
8986,0.06
8987,0.09
8988,0.11
8989,0.16
8990,0.205
8991,0.215
8992,0.18
8993,0.155
8994,0.11
8995,0.06
8996,0.06
8997,0.075
8998,0.125
8999,0.165
9000,0.19
9001,0.24
9002,0.185
9003,0.18
9004,0.16
9005,0.135
9006,0.165
9007,0.14
9008,0.155
9009,0.245
9010,0.285
9011,0.315
9012,0.235
9013,0.215
9014,0.23
9015,0.19
9016,0.17
9017,0.205
9018,0.225
9019,0.305
9020,0.335
9021,0.335
9022,0.34
9023,0.32
9024,0.255
9025,0.27
9026,0.275
9027,0.28
9028,0.31
9029,0.375
9030,0.41
9031,0.4
9032,0.38
9033,0.345
9034,0.33
9035,0.315
9036,0.29
9037,0.3
9038,0.345
9039,0.39
9040,0.405
9041,0.425
9042,0.39
9043,0.31
9044,0.28
9045,0.28
9046,0.28
9047,0.315
9048,0.305
9049,0.345
9050,0.37
9051,0.36
9052,0.325
9053,0.25
9054,0.21
9055,0.185
9056,0.155
9057,0.195
9058,0.22
9059,0.24
9060,0.22
9061,0.245
9062,0.175
9063,0.13
9064,0.08
9065,0.05
9066,0.05
9067,0.1
9068,0.145
9069,0.165
9070,0.145
9071,0.13
9072,0.12
9073,0.11
9074,0.075
9075,0.05
9076,0.035
9077,0.06
9078,0.1
9079,0.105
9080,0.12
9081,0.14
9082,0.12
9083,0.085
9084,0.06
9085,0.035
9086,0.03
9087,0.055
9088,0.115
9089,0.16
9090,0.15
9091,0.12
9092,0.115
9093,0.055
9094,0.06
9095,0.03
9096,0.02
9097,0.06
9098,0.115
9099,0.1
9100,0.12
9101,0.13
9102,0.125
9103,0.055
9104,0.045
9105,0.035
9106,0.02
9107,0.065
9108,0.125
9109,0.13
9110,0.165
9111,0.155
9112,0.12
9113,0.07
9114,0.035
9115,0.055
9116,0.025
9117,0.06
9118,0.13
9119,0.14
9120,0.15
9121,0.13
9122,0.12
9123,0.085
9124,0.065
9125,0.045
9126,0.075
9127,0.095
9128,0.16
9129,0.14
9130,0.15
9131,0.145
9132,0.115
9133,0.055
9134,0.05
9135,0.04
9136,0.075
9137,0.115
9138,0.15
9139,0.12
9140,0.115
9141,0.13
9142,0.12
9143,0.08
9144,0.03
9145,0.055
9146,0.055
9147,0.075
9148,0.13
9149,0.135
9150,0.17
9151,0.15
9152,0.115
9153,0.055
9154,0.055
9155,0.055
9156,0.065
9157,0.105
9158,0.145
9159,0.105
9160,0.135
9161,0.13
9162,0.105
9163,0.08
9164,0.055
9165,0.035
9166,0.055
9167,0.085
9168,0.12
9169,0.14
9170,0.19
9171,0.14
9172,0.085
9173,0.06
9174,0.02
9175,0.05
9176,0.065
9177,0.05
9178,0.11
9179,0.11
9180,0.12
9181,0.095
9182,0.125
9183,0.08
9184,0.035
9185,0.01
9186,0.055
9187,0.09
9188,0.125
9189,0.145
9190,0.16
9191,0.135
9192,0.095
9193,0.04
9194,0.09
9195,0.06
9196,0.085
9197,0.105
9198,0.145
9199,0.16
9200,0.19
9201,0.165
9202,0.115
9203,0.07
9204,0.055
9205,0.08
9206,0.09
9207,0.08
9208,0.16
9209,0.165
9210,0.16
9211,0.165
9212,0.135
9213,0.11
9214,0.09
9215,0.08
9216,0.1
9217,0.155
9218,0.16
9219,0.17
9220,0.19
9221,0.2
9222,0.155
9223,0.12
9224,0.12
9225,0.075
9226,0.09
9227,0.105
9228,0.12
9229,0.145
9230,0.135
9231,0.11
9232,0.04
9233,0.025
9234,0.02
9235,0.02
9236,0.05
9237,0.085
9238,0.125
9239,0.125
9240,0.11
9241,0.1
9242,0.085
9243,0.035
9244,0
9245,0.03
9246,0.025
9247,0.075
9248,0.125
9249,0.1
9250,0.13
9251,0.105
9252,0.055
9253,0.04
9254,0
9255,-0.01
9256,0.035
9257,0.07
9258,0.1
9259,0.05
9260,0.105
9261,0.08
9262,0.025
9263,-0.005
9264,-0.01
9265,-0.01
9266,0.04
9267,0.055
9268,0.135
9269,0.14
9270,0.11
9271,0.07
9272,0.02
9273,-0.05
9274,-0.025
9275,-0.005
9276,0.01
9277,0.025
9278,0.065
9279,0.065
9280,0.075
9281,0.1
9282,0.11
9283,0.17
9284,0.215
9285,0.315
9286,0.4
9287,0.535
9288,0.695
9289,0.845
9290,0.92
9291,0.92
9292,0.855
9293,0.79
9294,0.73
9295,0.65
9296,0.545
9297,0.515
9298,0.405
9299,0.255
9300,0.09
9301,-0.05
9302,-0.08
9303,-0.025
9304,-0.035
9305,-0.01
9306,0.035
9307,0.12
9308,0.165
9309,0.16
9310,0.17
9311,0.14
9312,0.06
9313,0.03
9314,0.015
9315,0.045
9316,0.06
9317,0.105
9318,0.16
9319,0.18
9320,0.145
9321,0.115
9322,0.05
9323,0.01
9324,0.025
9325,0.055
9326,0.08
9327,0.145
9328,0.14
9329,0.17
9330,0.125
9331,0.105
9332,0.065
9333,0.06
9334,0.04
9335,0.06
9336,0.115
9337,0.15
9338,0.175
9339,0.17
9340,0.155
9341,0.145
9342,0.105
9343,0.055
9344,0.07
9345,0.1
9346,0.115
9347,0.185
9348,0.21
9349,0.2
9350,0.165
9351,0.155
9352,0.105
9353,0.09
9354,0.11
9355,0.115
9356,0.155
9357,0.2
9358,0.22
9359,0.225
9360,0.2
9361,0.175
9362,0.135
9363,0.08
9364,0.095
9365,0.135
9366,0.195
9367,0.21
9368,0.255
9369,0.26
9370,0.235
9371,0.2
9372,0.17
9373,0.16
9374,0.185
9375,0.185
9376,0.23
9377,0.26
9378,0.32
9379,0.31
9380,0.3
9381,0.27
9382,0.235
9383,0.22
9384,0.23
9385,0.245
9386,0.325
9387,0.355
9388,0.37
9389,0.385
9390,0.35
9391,0.32
9392,0.305
9393,0.31
9394,0.29
9395,0.3
9396,0.38
9397,0.415
9398,0.41
9399,0.42
9400,0.37
9401,0.34
9402,0.335
9403,0.295
9404,0.31
9405,0.355
9406,0.38
9407,0.43
9408,0.41
9409,0.39
9410,0.37
9411,0.33
9412,0.31
9413,0.305
9414,0.285
9415,0.295
9416,0.295
9417,0.35
9418,0.35
9419,0.29
9420,0.26
9421,0.225
9422,0.18
9423,0.145
9424,0.165
9425,0.18
9426,0.245
9427,0.23
9428,0.2
9429,0.19
9430,0.195
9431,0.1
9432,0.085
9433,0.09
9434,0.095
9435,0.12
9436,0.145
9437,0.17
9438,0.175
9439,0.145
9440,0.105
9441,0.1
9442,0.06
9443,0.03
9444,0.07
9445,0.08
9446,0.115
9447,0.135
9448,0.14
9449,0.125
9450,0.11
9451,0.075
9452,0.025
9453,0.005
9454,0.03
9455,0.085
9456,0.13
9457,0.135
9458,0.125
9459,0.13
9460,0.1
9461,0.06
9462,0.035
9463,0.015
9464,0.035
9465,0.035
9466,0.115
9467,0.18
9468,0.165
9469,0.14
9470,0.105
9471,0.05
9472,0.005
9473,0.025
9474,0.095
9475,0.1
9476,0.12
9477,0.145
9478,0.15
9479,0.135
9480,0.105
9481,0.065
9482,0.045
9483,0.055
9484,0.045
9485,0.1
9486,0.14
9487,0.17
9488,0.18
9489,0.145
9490,0.08
9491,0.055
9492,0.03
9493,0.035
9494,0.06
9495,0.115
9496,0.15
9497,0.15
9498,0.155
9499,0.135
9500,0.11
9501,0.03
9502,0.02
9503,0.045
9504,0.05
9505,0.1
9506,0.17
9507,0.165
9508,0.125
9509,0.13
9510,0.085
9511,0.045
9512,0.045
9513,0.04
9514,0.05
9515,0.105
9516,0.13
9517,0.145
9518,0.155
9519,0.13
9520,0.125
9521,0.05
9522,0.015
9523,0.005
9524,0.015
9525,0.095
9526,0.145
9527,0.16
9528,0.15
9529,0.13
9530,0.07
9531,0.03
9532,0.035
9533,0.06
9534,0.055
9535,0.05
9536,0.085
9537,0.135
9538,0.14
9539,0.1
9540,0.055
9541,0.055
9542,0.02
9543,0.03
9544,0.035
9545,0.09
9546,0.12
9547,0.115
9548,0.12
9549,0.11
9550,0.055
9551,0.005
9552,0.01
9553,0.025
9554,0.05
9555,0.08
9556,0.095
9557,0.125
9558,0.165
9559,0.11
9560,0.055
9561,0.07
9562,0.04
9563,0.045
9564,0.04
9565,0.1
9566,0.135
9567,0.155
9568,0.145
9569,0.09
9570,0.065
9571,0.08
9572,0.045
9573,0.075
9574,0.09
9575,0.075
9576,0.105
9577,0.15
9578,0.155
9579,0.15
9580,0.12
9581,0.05
9582,0.045
9583,0.09
9584,0.115
9585,0.145
9586,0.185
9587,0.175
9588,0.15
9589,0.14
9590,0.11
9591,0.06
9592,0.095
9593,0.105
9594,0.065
9595,0.125
9596,0.165
9597,0.16
9598,0.12
9599,0.085
9600,0.04
9601,0.03
9602,-0.01
9603,0.005
9604,0.03
9605,0.1
9606,0.14
9607,0.13
9608,0.105
9609,0.07
9610,0.04
9611,0.015
9612,-0.015
9613,0.03
9614,0.055
9615,0.115
9616,0.14
9617,0.135
9618,0.09
9619,0.055
9620,-0.01
9621,-0.01
9622,-0.01
9623,0.015
9624,0.035
9625,0.095
9626,0.11
9627,0.12
9628,0.1
9629,0.08
9630,0.01
9631,-0.01
9632,0.005
9633,0.015
9634,0.05
9635,0.1
9636,0.11
9637,0.09
9638,0.065
9639,0.06
9640,-0.005
9641,0
9642,-0.035
9643,-0.005
9644,0.01
9645,0.045
9646,0.07
9647,0.06
9648,0.035
9649,0.07
9650,0.11
9651,0.13
9652,0.15
9653,0.23
9654,0.36
9655,0.47
9656,0.61
9657,0.71
9658,0.815
9659,0.89
9660,0.815
9661,0.82
9662,0.795
9663,0.715
9664,0.61
9665,0.545
9666,0.445
9667,0.305
9668,0.135
9669,0
9670,-0.11
9671,-0.105
9672,-0.06
9673,-0.03
9674,0.02
9675,0.08
9676,0.115
9677,0.145
9678,0.155
9679,0.085
9680,0.02
9681,0.01
9682,0.01
9683,0.01
9684,0.08
9685,0.105
9686,0.12
9687,0.115
9688,0.12
9689,0.11
9690,0.045
9691,0.03
9692,0.025
9693,0.045
9694,0.085
9695,0.115
9696,0.135
9697,0.12
9698,0.075
9699,0.03
9700,0.02
9701,0.045
9702,0.025
9703,0.045
9704,0.115
9705,0.165
9706,0.17
9707,0.155
9708,0.14
9709,0.09
9710,0.06
9711,0.045
9712,0.05
9713,0.075
9714,0.105
9715,0.115
9716,0.13
9717,0.135
9718,0.135
9719,0.115
9720,0.09
9721,0.045
9722,0.055
9723,0.095
9724,0.135
9725,0.18
9726,0.19
9727,0.175
9728,0.135
9729,0.12
9730,0.09
9731,0.065
9732,0.1
9733,0.13
9734,0.145
9735,0.2
9736,0.205
9737,0.195
9738,0.175
9739,0.115
9740,0.11
9741,0.135
9742,0.135
9743,0.195
9744,0.235
9745,0.255
9746,0.265
9747,0.255
9748,0.235
9749,0.175
9750,0.16
9751,0.17
9752,0.17
9753,0.195
9754,0.25
9755,0.33
9756,0.335
9757,0.33
9758,0.305
9759,0.255
9760,0.225
9761,0.225
9762,0.28
9763,0.31
9764,0.34
9765,0.35
9766,0.37
9767,0.355
9768,0.3
9769,0.275
9770,0.255
9771,0.28
9772,0.305
9773,0.275
9774,0.365
9775,0.375
9776,0.365
9777,0.355
9778,0.33
9779,0.27
9780,0.235
9781,0.245
9782,0.26
9783,0.26
9784,0.29
9785,0.25
9786,0.265
9787,0.225
9788,0.175
9789,0.135
9790,0.125
9791,0.075
9792,0.105
9793,0.13
9794,0.19
9795,0.205
9796,0.195
9797,0.145
9798,0.11
9799,0.09
9800,0.07
9801,0.04
9802,0.05
9803,0.085
9804,0.1
9805,0.08
9806,0.07
9807,0.105
9808,0.07
9809,0.03
9810,-0.02
9811,-0.025
9812,0.01
9813,0.035
9814,0.06
9815,0.08
9816,0.11
9817,0.065
9818,0.02
9819,-0.045
9820,-0.02
9821,0.015
9822,0.055
9823,0.055
9824,0.035
9825,0.065
9826,0.095
9827,0.1
9828,0.035
9829,-0.035
9830,-0.03
9831,-0.045
9832,-0.01
9833,0.055
9834,0.075
9835,0.13
9836,0.12
9837,0.08
9838,0.045
9839,-0.015
9840,-0.015
9841,0
9842,0.01
9843,0.05
9844,0.075
9845,0.075
9846,0.055
9847,0.07
9848,0.045
9849,0.035
9850,0.01
9851,-0.01
9852,0.015
9853,0.04
9854,0.055
9855,0.085
9856,0.095
9857,0.095
9858,0.045
9859,0
9860,-0.015
9861,0.01
9862,0.085
9863,0.08
9864,0.07
9865,0.13
9866,0.12
9867,0.055
9868,-0.01
9869,-0.01
9870,-0.005
9871,0.015
9872,0.045
9873,0.08
9874,0.12
9875,0.12
9876,0.09
9877,0.07
9878,0.025
9879,0.01
9880,-0.02
9881,-0.005
9882,0.01
9883,0.09
9884,0.09
9885,0.07
9886,0.065
9887,0.05
9888,0.04
9889,-0.01
9890,-0.025
9891,0.025
9892,0.03
9893,0.035
9894,0.105
9895,0.12
9896,0.12
9897,0.065
9898,-0.015
9899,-0.02
9900,-0.045
9901,0.005
9902,0.045
9903,0.12
9904,0.1
9905,0.08
9906,0.055
9907,0.06
9908,0.02
9909,-0.01
9910,-0.025
9911,-0.02
9912,0.015
9913,0.085
9914,0.105
9915,0.1
9916,0.055
9917,0.055
9918,-0.02
9919,-0.005
9920,0.015
9921,0.005
9922,0.045
9923,0.1
9924,0.105
9925,0.12
9926,0.11
9927,0.075
9928,0.015
9929,-0.015
9930,-0.01
9931,0.01
9932,0.055
9933,0.105
9934,0.165
9935,0.155
9936,0.13
9937,0.095
9938,0.055
9939,0.035
9940,0.035
9941,0.05
9942,0.065
9943,0.14
9944,0.21
9945,0.175
9946,0.09
9947,0.06
9948,0.05
9949,0.02
9950,0.02
9951,0.01
9952,0.025
9953,0.085
9954,0.075
9955,0.055
9956,0.045
9957,0.005
9958,0.005
9959,-0.03
9960,-0.035
9961,0
9962,0.005
9963,0.05
9964,0.085
9965,0.105
9966,0.05
9967,-0.005
9968,-0.03
9969,-0.05
9970,-0.035
9971,-0.025
9972,0.015
9973,0.02
9974,0.05
9975,0.04
9976,0.04
9977,0.01
9978,-0.035
9979,-0.04
9980,-0.01
9981,0.015
9982,-0.005
9983,0.05
9984,0.07
9985,0.07
9986,0.04
9987,0.005
9988,-0.045
9989,-0.045
9990,-0.03
9991,-0.02
9992,-0.005
9993,0.045
9994,0.07
9995,0.045
9996,0.05
9997,-0.015
9998,-0.05
9999,-0.065
10000,0.265
10001,0.25
10002,0.23
10003,0.24
10004,0.245
10005,0.285
10006,0.315
10007,0.355
10008,0.335
10009,0.3
10010,0.27
10011,0.23
10012,0.215
10013,0.225
10014,0.21
10015,0.29
10016,0.33
10017,0.335
10018,0.315
10019,0.255
10020,0.2
10021,0.135
10022,0.125
10023,0.12
10024,0.175
10025,0.215
10026,0.21
10027,0.185
10028,0.175
10029,0.17
10030,0.065
10031,0.035
10032,0.025
10033,0.005
10034,0.04
10035,0.085
10036,0.105
10037,0.13
10038,0.11
10039,0.065
10040,0.035
10041,0
10042,-0.045
10043,-0.01
10044,0.03
10045,0.05
10046,0.025
10047,0.055
10048,0.025
10049,0.025
10050,-0.025
10051,-0.07
10052,-0.065
10053,-0.03
10054,-0.045
10055,0.005
10056,0.03
10057,0.055
10058,0.025
10059,0
10060,-0.015
10061,-0.015
10062,-0.055
10063,-0.04
10064,-0.035
10065,0.03
10066,0.055
10067,0.055
10068,0.045
10069,0.02
10070,-0.04
10071,-0.08
10072,-0.09
10073,-0.075
10074,-0.03
10075,0.04
10076,0.06
10077,0.08
10078,0.075
10079,0.005
10080,-0.05
10081,-0.07
10082,-0.055
10083,-0.055
10084,0
10085,0.03
10086,0.035
10087,0.065
10088,0.06
10089,0.01
10090,-0.035
10091,-0.095
10092,-0.06
10093,-0.03
10094,0
10095,0.06
10096,0.065
10097,0.065
10098,0.045
10099,0.02
10100,-0.04
10101,-0.05
10102,-0.05
10103,0.005
10104,0.015
10105,0.06
10106,0.075
10107,0.085
10108,0.05
10109,-0.03
10110,-0.045
10111,-0.045
10112,-0.05
10113,-0.05
10114,0.01
10115,0.045
10116,0.07
10117,0.085
10118,0.045
10119,0
10120,-0.03
10121,-0.045
10122,-0.06
10123,-0.055
10124,-0.025
10125,0.015
10126,0.04
10127,0.065
10128,0.04
10129,-0.02
10130,-0.075
10131,-0.085
10132,-0.075
10133,-0.04
10134,0
10135,0.025
10136,0.025
10137,0.035
10138,0.04
10139,-0.02
10140,-0.08
10141,-0.065
10142,-0.06
10143,-0.03
10144,-0.005
10145,0.045
10146,0.095
10147,0.06
10148,0.045
10149,0.015
10150,-0.025
10151,-0.03
10152,0.01
10153,-0.04
10154,0.02
10155,0.04
10156,0.065
10157,0.035
10158,0.045
10159,0.045
10160,0.035
10161,0
10162,-0.025
10163,0.01
10164,0.04
10165,0.09
10166,0.1
10167,0.095
10168,0.04
10169,0.01
10170,0.02
10171,0
10172,0.025
10173,0.075
10174,0.085
10175,0.095
10176,0.115
10177,0.085
10178,0.045
10179,-0.01
10180,-0.04
10181,-0.08
10182,-0.075
10183,-0.03
10184,-0.01
10185,0.01
10186,0
10187,0.01
10188,0
10189,-0.015
10190,-0.07
10191,-0.085
10192,-0.045
10193,-0.045
10194,-0.02
10195,-0.01
10196,0.04
10197,0.04
10198,-0.005
10199,-0.08
10200,-0.1
10201,-0.075
10202,-0.05
10203,-0.045
10204,-0.005
10205,0.015
10206,0.02
10207,0.01
10208,0.01
10209,-0.05
10210,-0.115
10211,-0.105
10212,-0.09
10213,-0.05
10214,-0.005
10215,0.02
10216,0
10217,0.005
10218,-0.03
10219,-0.09
10220,-0.115
10221,-0.095
10222,-0.09
10223,-0.07
10224,-0.04
10225,-0.025
10226,-0.01
10227,-0.04
10228,-0.09
10229,-0.15
10230,-0.095
10231,-0.095
10232,-0.015
10233,0.065
10234,0.195
10235,0.26
10236,0.37
10237,0.435
10238,0.53
10239,0.575
10240,0.7
10241,0.75
10242,0.79
10243,0.75
10244,0.745
10245,0.695
10246,0.585
10247,0.45
10248,0.315
10249,0.13
10250,-0.04
10251,-0.14
10252,-0.15
10253,-0.13
10254,-0.1
10255,-0.06
10256,-0.03
10257,-0.015
10258,-0.01
10259,-0.04
10260,-0.05
10261,-0.075
10262,-0.04
10263,-0.02
10264,0.005
10265,0.04
10266,0.05
10267,0.025
10268,-0.005
10269,-0.065
10270,-0.045
10271,-0.04
10272,-0.05
10273,0.015
10274,0.09
10275,0.06
10276,0.035
10277,0.03
10278,0.01
10279,-0.055
10280,-0.05
10281,-0.045
10282,-0.01
10283,0.045
10284,0.075
10285,0.1
10286,0.095
10287,0.035
10288,-0.01
10289,0.005
10290,-0.015
10291,-0.035
10292,0.005
10293,0.02
10294,0.055
10295,0.11
10296,0.07
10297,0.045
10298,0
10299,-0.035
10300,-0.03
10301,-0.03
10302,0.05
10303,0.075
10304,0.075
10305,0.08
10306,0.1
10307,0.095
10308,0.045
10309,0.005
10310,-0.01
10311,0.015
10312,0.055
10313,0.1
10314,0.12
10315,0.135
10316,0.065
10317,0.095
10318,0.085
10319,0.055
10320,0.04
10321,0.08
10322,0.09
10323,0.145
10324,0.145
10325,0.19
10326,0.175
10327,0.15
10328,0.09
10329,0.1
10330,0.075
10331,0.095
10332,0.14
10333,0.185
10334,0.205
10335,0.245
10336,0.225
10337,0.205
10338,0.185
10339,0.14
10340,0.165
10341,0.18
10342,0.19
10343,0.26
10344,0.27
10345,0.31
10346,0.295
10347,0.27
10348,0.215
10349,0.21
10350,0.175
10351,0.195
10352,0.215
10353,0.255
10354,0.27
10355,0.315
10356,0.335
10357,0.28
10358,0.225
10359,0.2
10360,0.195
10361,0.19
10362,0.225
10363,0.255
10364,0.28
10365,0.26
10366,0.2
10367,0.165
10368,0.13
10369,0.085
10370,0.08
10371,0.09
10372,0.1
10373,0.115
10374,0.135
10375,0.16
10376,0.12
10377,0.065
10378,0.015
10379,-0.03
10380,-0.035
10381,-0.01
10382,0.02
10383,0.08
10384,0.125
10385,0.085
10386,0.04
10387,0.03
10388,-0.015
10389,-0.06
10390,-0.035
10391,-0.06
10392,-0.025
10393,0.04
10394,0.065
10395,0.02
10396,0.045
10397,0.005
10398,-0.05
10399,-0.07
10400,-0.07
10401,-0.04
10402,-0.03
10403,0.015
10404,0.015
10405,0.035
10406,0.025
10407,-0.02
10408,-0.045
10409,-0.075
10410,-0.09
10411,-0.04
10412,-0.03
10413,-0.005
10414,0.06
10415,0.02
10416,0.035
10417,0.01
10418,-0.035
10419,-0.065
10420,-0.07
10421,-0.045
10422,-0.01
10423,0.075
10424,0.065
10425,0.05
10426,0.04
10427,0.04
10428,-0.055
10429,-0.08
10430,-0.06
10431,-0.02
10432,-0.04
10433,0.02
10434,0.065
10435,0.03
10436,0.035
10437,-0.01
10438,-0.035
10439,-0.02
10440,-0.075
10441,-0.04
10442,0.015
10443,0.025
10444,0.04
10445,0.045
10446,0.025
10447,0.005
10448,-0.035
10449,-0.06
10450,-0.06
10451,-0.035
10452,0.02
10453,0.035
10454,0.055
10455,0.09
10456,0.045
10457,0.025
10458,-0.03
10459,-0.05
10460,-0.05
10461,-0.035
10462,-0.005
10463,0.035
10464,0.055
10465,0
10466,0
10467,-0.005
10468,-0.03
10469,-0.025
10470,-0.04
10471,-0.015
10472,0.005
10473,0.045
10474,0.025
10475,0.03
10476,0.01
10477,-0.05
10478,-0.075
10479,-0.095
10480,-0.07
10481,-0.04
10482,-0.015
10483,0.015
10484,0.06
10485,0.04
10486,0.01
10487,-0.055
10488,-0.08
10489,-0.06
10490,-0.075
10491,-0.035
10492,-0.005
10493,0.005
10494,0.045
10495,0.05
10496,0.035
10497,0.005
10498,-0.035
10499,-0.05
10500,-0.065
10501,-0.05
10502,0.01
10503,0.055
10504,0.06
10505,0.045
10506,-0.015
10507,-0.055
10508,-0.015
10509,-0.07
10510,-0.04
10511,0.02
10512,0.075
10513,0.085
10514,0.075
10515,0.085
10516,0.085
10517,0
10518,-0.035
10519,0
10520,0
10521,-0.02
10522,0.055
10523,0.095
10524,0.105
10525,0.08
10526,0.04
10527,0
10528,-0.04
10529,-0.06
10530,-0.05
10531,-0.03
10532,-0.01
10533,0.025
10534,0.02
10535,0.02
10536,-0.025
10537,-0.1
10538,-0.09
10539,-0.085
10540,-0.065
10541,-0.06
10542,-0.025
10543,0.01
10544,-0.01
10545,-0.005
10546,-0.03
10547,-0.1
10548,-0.145
10549,-0.105
10550,-0.085
10551,-0.085
10552,-0.025
10553,0.02
10554,0.015
10555,0.005
10556,-0.04
10557,-0.095
10558,-0.055
10559,-0.09
10560,-0.09
10561,-0.09
10562,0
10563,0.06
10564,0.03
10565,-0.01
10566,-0.035
10567,-0.085
10568,-0.13
10569,-0.13
10570,-0.085
10571,-0.06
10572,-0.02
10573,0.01
10574,-0.01
10575,-0.045
10576,-0.11
10577,-0.14
10578,-0.135
10579,-0.12
10580,-0.095
10581,-0.06
10582,0.01
10583,0.15
10584,0.195
10585,0.23
10586,0.22
10587,0.27
10588,0.39
10589,0.45
10590,0.625
10591,0.79
10592,0.8
10593,0.83
10594,0.775
10595,0.655
10596,0.505
10597,0.38
10598,0.255
10599,0.155
10600,0.045
10601,-0.02
10602,-0.065
10603,-0.075
10604,-0.06
10605,-0.075
10606,-0.1
10607,-0.1
10608,-0.085
10609,-0.075
10610,-0.005
10611,-0.005
10612,0.02
10613,0.06
10614,0.085
10615,0.01
10616,-0.02
10617,-0.045
10618,-0.07
10619,-0.075
10620,-0.06
10621,-0.025
10622,0.04
10623,0.07
10624,0.05
10625,0.02
10626,-0.02
10627,-0.05
10628,-0.07
10629,-0.055
10630,-0.025
10631,0.025
10632,0.035
10633,0.06
10634,0.05
10635,0.02
10636,-0.02
10637,-0.04
10638,-0.055
10639,-0.045
10640,-0.005
10641,0.055
10642,0.065
10643,0.055
10644,0.095
10645,0.065
10646,0.005
10647,-0.05
10648,-0.075
10649,-0.03
10650,-0.005
10651,0.085
10652,0.085
10653,0.095
10654,0.095
10655,0.08
10656,0.04
10657,0.015
10658,-0.025
10659,-0.015
10660,0.05
10661,0.085
10662,0.09
10663,0.1
10664,0.11
10665,0.105
10666,0.055
10667,0
10668,0.005
10669,0.035
10670,0.075
10671,0.095
10672,0.155
10673,0.135
10674,0.145
10675,0.14
10676,0.08
10677,0.085
10678,0.06
10679,0.055
10680,0.125
10681,0.17
10682,0.195
10683,0.275
10684,0.24
10685,0.17
10686,0.135
10687,0.15
10688,0.14
10689,0.155
10690,0.2
10691,0.255
10692,0.29
10693,0.29
10694,0.265
10695,0.265
10696,0.195
10697,0.165
10698,0.18
10699,0.235
10700,0.24
10701,0.285
10702,0.28
10703,0.3
10704,0.325
10705,0.265
10706,0.225
10707,0.18
10708,0.195
10709,0.2
10710,0.23
10711,0.26
10712,0.28
10713,0.285
10714,0.22
10715,0.145
10716,0.13
10717,0.135
10718,0.12
10719,0.125
10720,0.16
10721,0.155
10722,0.175
10723,0.18
10724,0.105
10725,0.075
10726,0.045
10727,0.045
10728,0.02
10729,0.03
10730,0.05
10731,0.095
10732,0.085
10733,0.03
10734,-0.005
10735,-0.02
10736,-0.06
10737,-0.05
10738,-0.05
10739,-0.045
10740,0
10741,0.025
10742,0.04
10743,0.05
10744,0.015
10745,-0.045
10746,-0.035
10747,-0.075
10748,-0.075
10749,-0.065
10750,0
10751,0.005
10752,0.055
10753,0.04
10754,0.01
10755,-0.02
10756,-0.045
10757,-0.085
10758,-0.1
10759,-0.03
10760,0.005
10761,0
10762,0.02
10763,0.035
10764,-0.005
10765,-0.04
10766,-0.055
10767,-0.09
10768,-0.075
10769,-0.04
10770,0.02
10771,0.085
10772,0.05
10773,0.03
10774,0.02
10775,-0.025
10776,-0.08
10777,-0.075
10778,-0.07
10779,-0.055
10780,-0.055
10781,-0.005
10782,0.045
10783,0.05
10784,0.005
10785,-0.05
10786,-0.065
10787,-0.07
10788,-0.045
10789,-0.03
10790,0.005
10791,0.04
10792,0.05
10793,0.075
10794,0.055
10795,-0.035
10796,-0.07
10797,-0.055
10798,-0.055
10799,-0.015
10800,0.015
10801,0.02
10802,0.04
10803,0.04
10804,0.06
10805,-0.02
10806,-0.065
10807,-0.055
10808,-0.035
10809,-0.045
10810,-0.03
10811,0.03
10812,0.05
10813,0.045
10814,-0.025
10815,-0.05
10816,-0.065
10817,-0.065
10818,-0.05
10819,-0.045
10820,0.02
10821,0.05
10822,0.065
10823,0.025
10824,0.01
10825,-0.05
10826,-0.07
10827,-0.09
10828,-0.07
10829,-0.025
10830,0.03
10831,0.055
10832,0.05
10833,0.015
10834,0.015
10835,-0.045
10836,-0.065
10837,-0.05
10838,-0.1
10839,-0.025
10840,0
10841,-0.01
10842,0.01
10843,0.03
10844,0.005
10845,-0.055
10846,-0.04
10847,-0.05
10848,-0.02
10849,0.005
10850,0.02
10851,0.03
10852,0.06
10853,0.05
10854,0.015
10855,-0.035
10856,-0.025
10857,-0.02
10858,-0.025
10859,-0.02
10860,0.04
10861,0.065
10862,0.04
10863,0.04
10864,0.045
10865,0.01
10866,-0.045
10867,-0.075
10868,-0.01
10869,0.03
10870,0.07
10871,0.085
10872,0.125
10873,0.075
10874,0.06
10875,0
10876,-0.025
10877,0
10878,0.01
10879,0.04
10880,0.065
10881,0.1
10882,0.085
10883,0.035
10884,-0.025
10885,-0.04
10886,-0.05
10887,-0.08
10888,-0.06
10889,-0.005
10890,0.015
10891,0.005
10892,0.04
10893,0.035
10894,0.005
10895,-0.06
10896,-0.08
10897,-0.09
10898,-0.035
10899,0
10900,0.01
10901,-0.005
10902,0.005
10903,0
10904,-0.065
10905,-0.1
10906,-0.1
10907,-0.12
10908,-0.065
10909,0
10910,0.005
10911,0.01
10912,0.025
10913,0.005
10914,-0.06
10915,-0.115
10916,-0.135
10917,-0.09
10918,-0.04
10919,-0.02
10920,0.02
10921,0.01
10922,0.005
10923,-0.01
10924,-0.065
10925,-0.11
10926,-0.11
10927,-0.105
10928,-0.1
10929,-0.05
10930,0.01
10931,0.01
10932,-0.015
10933,-0.105
10934,-0.13
10935,-0.1
10936,-0.045
10937,0.045
10938,0.115
10939,0.215
10940,0.305
10941,0.415
10942,0.51
10943,0.59
10944,0.665
10945,0.755
10946,0.77
10947,0.8
10948,0.765
10949,0.735
10950,0.63
10951,0.55
10952,0.4
10953,0.245
10954,0.06
10955,-0.09
10956,-0.16
10957,-0.165
10958,-0.13
10959,-0.07
10960,-0.02
10961,0.01
10962,0.015
10963,0.02
10964,-0.015
10965,-0.01
10966,-0.045
10967,-0.045
10968,-0.035
10969,0.02
10970,0.075
10971,0.065
10972,0.06
10973,0.035
10974,-0.05
10975,-0.08
10976,-0.06
10977,-0.05
10978,-0.035
10979,0.025
10980,0.04
10981,0.04
10982,0.02
10983,0.02
10984,-0.05
10985,-0.025
10986,-0.035
10987,-0.015
10988,-0.01
10989,0.055
10990,0.055
10991,0.06
10992,0.065
10993,0.035
10994,-0.04
10995,-0.01
10996,0
10997,0.04
10998,0.025
10999,0.04
11000,0.075
11001,0.095
11002,0.08
11003,0.04
11004,-0.02
11005,-0.03
11006,-0.035
11007,-0.015
11008,0.03
11009,0.095
11010,0.09
11011,0.105
11012,0.11
11013,0.07
11014,0.05
11015,0.06
11016,0
11017,0.005
11018,0.07
11019,0.11
11020,0.11
11021,0.12
11022,0.09
11023,0.07
11024,0.035
11025,0.08
11026,0.065
11027,0.085
11028,0.135
11029,0.19
11030,0.19
11031,0.2
11032,0.135
11033,0.125
11034,0.13
11035,0.14
11036,0.17
11037,0.195
11038,0.165
11039,0.235
11040,0.28
11041,0.285
11042,0.25
11043,0.22
11044,0.21
11045,0.2
11046,0.18
11047,0.205
11048,0.26
11049,0.27
11050,0.32
11051,0.355
11052,0.345
11053,0.29
11054,0.24
11055,0.23
11056,0.205
11057,0.3
11058,0.32
11059,0.33
11060,0.32
11061,0.345
11062,0.325
11063,0.265
11064,0.19
11065,0.19
11066,0.22
11067,0.205
11068,0.255
11069,0.28
11070,0.27
11071,0.265
11072,0.22
11073,0.17
11074,0.125
11075,0.085
11076,0.11
11077,0.11
11078,0.13
11079,0.17
11080,0.165
11081,0.175
11082,0.115
11083,0.035
11084,0.025
11085,-0.025
11086,0.015
11087,0.035
11088,0.09
11089,0.075
11090,0.065
11091,0.06
11092,0.055
11093,0.01
11094,-0.04
11095,-0.04
11096,-0.05
11097,-0.04
11098,0.03
11099,0.075
11100,0.005
11101,-0.01
11102,0.055
11103,0.02
11104,-0.03
11105,-0.045
11106,-0.025
11107,-0.015
11108,0.025
11109,0.065
11110,0.055
11111,0.03
11112,0.045
11113,-0.005
11114,-0.06
11115,-0.06
11116,-0.03
11117,-0.02
11118,0.015
11119,0.03
11120,0.055
11121,0.055
11122,0.02
11123,-0.015
11124,-0.06
11125,-0.045
11126,0.01
11127,0.02
11128,0.01
11129,0.025
11130,0.06
11131,0.055
11132,0
11133,-0.025
11134,-0.05
11135,-0.045
11136,-0.015
11137,0
11138,0.04
11139,0.075
11140,0.07
11141,0.03
11142,0.005
11143,0.01
11144,-0.025
11145,-0.05
11146,-0.015
11147,0.005
11148,0.06
11149,0.095
11150,0.08
11151,0.085
11152,0.005
11153,-0.035
11154,-0.055
11155,-0.05
11156,0.01
11157,0.035
11158,0.085
11159,0.085
11160,0.055
11161,0.035
11162,0.04
11163,-0.02
11164,-0.065
11165,-0.03
11166,-0.02
11167,0.005
11168,0.045
11169,0.085
11170,0.07
11171,0.05
11172,-0.01
11173,-0.055
11174,-0.06
11175,-0.055
11176,-0.02
11177,0
11178,0.04
11179,0.05
11180,0.08
11181,0.025
11182,-0.025
11183,-0.055
11184,-0.065
11185,-0.105
11186,-0.095
11187,0.02
11188,0.08
11189,0.09
11190,0.08
11191,0.05
11192,-0.005
11193,-0.05
11194,-0.04
11195,-0.02
11196,-0.035
11197,0.01
11198,0.045
11199,0.045
11200,0.07
11201,0.03
11202,-0.03
11203,-0.055
11204,-0.045
11205,-0.04
11206,-0.06
11207,-0.02
11208,0.035
11209,0.07
11210,0.07
11211,0.035
11212,-0.025
11213,-0.04
11214,-0.045
11215,-0.055
11216,-0.02
11217,0.015
11218,0.055
11219,0.075
11220,0.055
11221,0.045
11222,0.01
11223,-0.02
11224,-0.03
11225,-0.05
11226,-0.015
11227,0.01
11228,0.06
11229,0.125
11230,0.12
11231,0.045
11232,0
11233,-0.005
11234,0
11235,0.035
11236,0.035
11237,0.065
11238,0.12
11239,0.12
11240,0.11
11241,0.1
11242,0.06
11243,0.045
11244,0.01
11245,0.005
11246,0.035
11247,0.075
11248,0.075
11249,0.055
11250,0.07
11251,0.035
11252,-0.025
11253,-0.065
11254,-0.06
11255,-0.06
11256,-0.035
11257,0.01
11258,0.055
11259,0.075
11260,0.02
11261,-0.01
11262,-0.045
11263,-0.065
11264,-0.075
11265,-0.02
11266,-0.025
11267,0.015
11268,0.025
11269,0.055
11270,0.015
11271,-0.025
11272,-0.065
11273,-0.05
11274,-0.05
11275,-0.035
11276,-0.025
11277,0.01
11278,0.045
11279,0.045
11280,0.01
11281,-0.015
11282,-0.05
11283,-0.06
11284,-0.04
11285,-0.09
11286,-0.045
11287,-0.015
11288,0.02
11289,0.01
11290,0.005
11291,-0.005
11292,-0.075
11293,-0.075
11294,-0.105
11295,-0.07
11296,-0.03
11297,-0.035
11298,-0.005
11299,-0.005
11300,-0.05
11301,-0.05
11302,-0.04
11303,0
11304,0.07
11305,0.145
11306,0.25
11307,0.39
11308,0.465
